EC-Lab ASCII FILE
Nb header lines : 63                          

Linear Sweep Voltammetry

Run on channel : 6 (SN 13765)
User : 
Electrode connection : standard
Potential control : Ewe
Ewe ctrl range : min = -2.50 V, max = 2.50 V
Ewe,I filtering : <None>
Safety Limits :
	Do not start on E overload
Channel : Floating
Acquisition started on : 07/13/2026 14:35:36.851
Technique started on : 07/13/2026 14:35:37.848
Loaded Setting File :  C:\Users\EEM-620\Desktop\Wade\20260630\LSV 1mg MoS2 1_C06.mpr
Saved on :
	File : N719_0713-0-3_C06.mpr
	Directory : C:\Users\EEM-620\Desktop\Wade\abao\20260713\
	Host : 192.109.209.200
Device : VSP-300 (SN 0025)
Address : 192.109.209.129
EC-LAB for windows v11.62 (software)
Internet server v27.00 (firmware)
Command interpretor v12.02 (firmware)
Electrode material : Au/Pd
Initial state : 
Electrolyte : NaCl (0.2M)
Comments : Fe(CN)63-/Fe(CN)64- 5.10-3 M
Cable : ULC
Reference electrode : SCE Saturated Calomel Electrode (0.241 V)
Electrode surface area : 0.001 cm2
Characteristic mass : 0.001 g
Equivalent Weight : 0.000 g/eq.
Density : 0.000 g/cm3
Volume (V) : 0.001 cm3
Cycle Definition : Charge/Discharge alternance
tR (h:m:s)          0:00:5.0000         
dER/dt (mV/h)       0.0                 
dER (mV)            0                   
dtR (s)             0.0500              
dE/dt               10.000              
dE/dt unit          mV/s                
Ei (V)              -0.800              
vs.                 Ref                 
EL (V)              0.010               
vs.                 Ref                 
record              <I>                 
dI                  0.000               
unit dI             uA                  
tI (s)              0.0000              
step percent        50                  
N                   10                  
E range min (V)     -2.500              
E range max (V)     2.500               
I Range             Auto                
I Range min         Unset               
I Range max         Unset               
I Range init        Unset               
Bandwidth           8                   

Ewe/V	<I>/mA	
-6.7549783E-001	0.000000000000000E+000
-6.7537946E-001	0.000000000000000E+000
-6.7492890E-001	0.000000000000000E+000
-6.7501676E-001	0.000000000000000E+000
-6.7533368E-001	0.000000000000000E+000
-6.7487550E-001	0.000000000000000E+000
-6.7502820E-001	0.000000000000000E+000
-6.7527258E-001	0.000000000000000E+000
-6.7529929E-001	0.000000000000000E+000
-6.7550927E-001	0.000000000000000E+000
-6.7538708E-001	0.000000000000000E+000
-6.7537183E-001	0.000000000000000E+000
-6.7545199E-001	0.000000000000000E+000
-6.7532980E-001	0.000000000000000E+000
-6.7522293E-001	0.000000000000000E+000
-6.7508161E-001	0.000000000000000E+000
-6.7524964E-001	0.000000000000000E+000
-6.7510837E-001	0.000000000000000E+000
-6.7493272E-001	0.000000000000000E+000
-6.7603624E-001	0.000000000000000E+000
-6.7544055E-001	0.000000000000000E+000
-6.7486399E-001	0.000000000000000E+000
-6.7533749E-001	0.000000000000000E+000
-6.7541385E-001	0.000000000000000E+000
-6.7562383E-001	0.000000000000000E+000
-6.7566204E-001	0.000000000000000E+000
-6.7511982E-001	0.000000000000000E+000
-6.7531836E-001	0.000000000000000E+000
-6.7519623E-001	0.000000000000000E+000
-6.7523438E-001	0.000000000000000E+000
-6.7547488E-001	0.000000000000000E+000
-6.7541385E-001	0.000000000000000E+000
-6.7560858E-001	0.000000000000000E+000
-6.7574984E-001	0.000000000000000E+000
-6.7551309E-001	0.000000000000000E+000
-6.7558569E-001	0.000000000000000E+000
-6.7533368E-001	0.000000000000000E+000
-6.7521530E-001	0.000000000000000E+000
-6.7509693E-001	0.000000000000000E+000
-6.7534131E-001	0.000000000000000E+000
-6.7524964E-001	0.000000000000000E+000
-6.7518473E-001	0.000000000000000E+000
-6.7494798E-001	0.000000000000000E+000
-6.7526877E-001	0.000000000000000E+000
-6.7506254E-001	0.000000000000000E+000
-6.7514652E-001	0.000000000000000E+000
-6.7545968E-001	0.000000000000000E+000
-6.7532980E-001	0.000000000000000E+000
-6.7539859E-001	0.000000000000000E+000
-6.7545581E-001	0.000000000000000E+000
-6.7530310E-001	0.000000000000000E+000
-6.7551309E-001	0.000000000000000E+000
-6.7493272E-001	0.000000000000000E+000
-6.7569637E-001	0.000000000000000E+000
-6.7550933E-001	0.000000000000000E+000
-6.7521143E-001	0.000000000000000E+000
-6.7564297E-001	0.000000000000000E+000
-6.7578417E-001	0.000000000000000E+000
-6.7483348E-001	0.000000000000000E+000
-6.7514271E-001	0.000000000000000E+000
-6.7527258E-001	0.000000000000000E+000
-6.7991179E-001	0.000000000000000E+000
-6.7987746E-001	0.000000000000000E+000
-7.8928679E-001	-1.403824635173969E+000
-7.8867513E-001	-1.394291208384026E+000
-7.8767228E-001	-1.379836900504650E+000
-7.8676730E-001	-1.365600096268785E+000
-7.8573203E-001	-1.352312779624787E+000
-7.8469074E-001	-1.339279890060427E+000
-7.8368467E-001	-1.325945501802142E+000
-7.8275585E-001	-1.312848895368777E+000
-7.8161985E-001	-1.299937750454299E+000
-7.8068322E-001	-1.286572222908336E+000
-7.7982104E-001	-1.273803928417689E+000
-7.7871770E-001	-1.261188471344884E+000
-7.7778405E-001	-1.248268363928355E+000
-7.7671164E-001	-1.235081713207641E+000
-7.7569467E-001	-1.222702720788893E+000
-7.7475148E-001	-1.209979439361229E+000
-7.7370608E-001	-1.197297452430641E+000
-7.7276385E-001	-1.184531582036501E+000
-7.7175415E-001	-1.171846962913321E+000
-7.7077794E-001	-1.159073716049305E+000
-7.6980621E-001	-1.146664828613945E+000
-7.6882136E-001	-1.133882993073376E+000
-7.6776397E-001	-1.121449825195407E+000
-7.6674330E-001	-1.108901582382344E+000
-7.6571345E-001	-1.096444147742455E+000
-7.6473927E-001	-1.083941939135171E+000
-7.6377273E-001	-1.071304834275342E+000
-7.6264346E-001	-1.059138658559985E+000
-7.6182407E-001	-1.046365519238702E+000
-7.6077133E-001	-1.033596550838816E+000
-7.5977278E-001	-1.021190664558496E+000
-7.5881231E-001	-1.008758654155065E+000
-7.5783694E-001	-9.961828905399166E-001
-7.5671959E-001	-9.836494187237976E-001
-7.5574201E-001	-9.714437072943647E-001
-7.5479871E-001	-9.589440554932338E-001
-7.5380188E-001	-9.466302058098535E-001
-7.5275224E-001	-9.341301517906047E-001
-7.5172740E-001	-9.217127041408304E-001
-7.5069475E-001	-9.092521067637899E-001
-7.4979198E-001	-8.967417286777994E-001
-7.4869829E-001	-8.843552512979080E-001
-7.4771947E-001	-8.719581461007637E-001
-7.4676514E-001	-8.594819154176445E-001
-7.4579895E-001	-8.472540593809512E-001
-7.4482661E-001	-8.350212900240095E-001
-7.4376869E-001	-8.225015381144147E-001
-7.4281341E-001	-8.103409010778968E-001
-7.4173999E-001	-7.980114597218648E-001
-7.4073505E-001	-7.855700751835517E-001
-7.3978442E-001	-7.733941603176007E-001
-7.3872644E-001	-7.608870625076776E-001
-7.3774040E-001	-7.486367460202299E-001
-7.3671579E-001	-7.364548311603292E-001
-7.3570412E-001	-7.243024352829135E-001
-7.3479480E-001	-7.118283473645117E-001
-7.3376811E-001	-6.996742084760328E-001
-7.3278213E-001	-6.873617121213087E-001
-7.3175371E-001	-6.751065308711057E-001
-7.3070681E-001	-6.625496346365534E-001
-7.2984964E-001	-6.504885701395366E-001
-7.2883642E-001	-6.384310053178535E-001
-7.2772908E-001	-6.260329640160034E-001
-7.2685695E-001	-6.138536416088920E-001
-7.2575879E-001	-6.016193776632894E-001
-7.2473276E-001	-5.894937693244895E-001
-7.2380793E-001	-5.775037010984541E-001
-7.2279173E-001	-5.653571563738371E-001
-7.2175336E-001	-5.529677665757866E-001
-7.2082734E-001	-5.407439342826112E-001
-7.1979678E-001	-5.287783839222486E-001
-7.1875370E-001	-5.170362644173481E-001
-7.1770567E-001	-5.044065273731597E-001
-7.1676505E-001	-4.923409569870527E-001
-7.1578717E-001	-4.801547120290728E-001
-7.1477371E-001	-4.679690477026153E-001
-7.1382052E-001	-4.557548932455173E-001
-7.1266150E-001	-4.428003825689926E-001
-7.1165007E-001	-4.290091112531996E-001
-7.1062690E-001	-4.171315357089043E-001
-7.0952994E-001	-4.048052010062415E-001
-7.0851040E-001	-3.927437487851684E-001
-7.0746911E-001	-3.806053266550107E-001
-7.0664370E-001	-3.686553957206229E-001
-7.0548195E-001	-3.566620544082033E-001
-7.0463324E-001	-3.444057314622171E-001
-7.0356411E-001	-3.325294880524423E-001
-7.0243013E-001	-3.203750352409713E-001
-7.0160115E-001	-3.083065093184509E-001
-7.0047182E-001	-2.962732569597324E-001
-6.9953889E-001	-2.845108466291864E-001
-6.9852948E-001	-2.726427951344741E-001
-6.9756681E-001	-2.606244058874039E-001
-6.9658023E-001	-2.486107217630855E-001
-6.9556290E-001	-2.365338605725107E-001
-6.9450223E-001	-2.245650315837147E-001
-6.9351590E-001	-2.126459554872575E-001
-6.9244140E-001	-2.004891740917056E-001
-6.9147098E-001	-1.886393023859054E-001
-6.9049287E-001	-1.766124598647441E-001
-6.8938339E-001	-1.646072753808565E-001
-6.8837732E-001	-1.528708887990251E-001
-6.8761164E-001	-1.410118192089377E-001
-6.8657309E-001	-1.291524318943694E-001
-6.8548638E-001	-1.170632042741260E-001
-6.8458444E-001	-1.053775078272103E-001
-6.8357575E-001	-9.357939303542162E-002
-6.8247741E-001	-8.162477484311959E-002
-6.8152046E-001	-6.971376877347057E-002
-6.8055081E-001	-5.773313500470034E-002
-6.7955321E-001	-4.571573947164198E-002
-6.7836320E-001	-3.238078591012819E-002
-6.7714423E-001	-1.895277199326766E-002
-6.7623037E-001	-7.019793436958688E-003
-6.7512232E-001	4.939817687011724E-003
-6.7404550E-001	1.722473232722321E-002
-6.7318863E-001	2.935818775222418E-002
-6.7217648E-001	4.098244884085878E-002
-6.7104727E-001	5.294569805523175E-002
-6.7015046E-001	6.490037658614761E-002
-6.6914517E-001	7.674252029715301E-002
-6.6815668E-001	8.837803136729772E-002
-6.6712594E-001	1.004073372112222E-001
-6.6590500E-001	1.136202393655599E-001
-6.6476607E-001	1.268652348513792E-001
-6.6398305E-001	1.387969275970982E-001
-6.6291624E-001	1.506333454788007E-001
-6.6198444E-001	1.624427475330994E-001
-6.6081047E-001	1.740696998658000E-001
-6.5980399E-001	1.859079690443153E-001
-6.5889627E-001	1.976655622676864E-001
-6.5786147E-001	2.093245605765661E-001
-6.5690160E-001	2.209217191708310E-001
-6.5588558E-001	2.326667698538563E-001
-6.5497655E-001	2.444098652512952E-001
-6.5387303E-001	2.561166867337834E-001
-6.5290987E-001	2.679918466156246E-001
-6.5184367E-001	2.795874738927799E-001
-6.5082932E-001	2.914675396901583E-001
-6.4990956E-001	3.031426114993185E-001
-6.4885986E-001	3.147350501407069E-001
-6.4791501E-001	3.264727007114779E-001
-6.4688402E-001	3.380559778562970E-001
-6.4586079E-001	3.496261377025522E-001
-6.4498007E-001	3.612286404672043E-001
-6.4374644E-001	3.730173533628651E-001
-6.4277583E-001	3.845350870655633E-001
-6.4197952E-001	3.962175107250614E-001
-6.4092046E-001	4.075717380114829E-001
-6.3976830E-001	4.195575298120557E-001
-6.3880521E-001	4.308152362290354E-001
-6.3783973E-001	4.424890700590254E-001
-6.3687485E-001	4.535988163616942E-001
-6.3578266E-001	4.651480417146718E-001
-6.3474041E-001	4.766107744163239E-001
-6.3388342E-001	4.881237175453592E-001
-6.3286167E-001	4.997045529523385E-001
-6.3192517E-001	5.111767178137594E-001
-6.3090539E-001	5.228136155616312E-001
-6.2982601E-001	5.343579718222227E-001
-6.2879652E-001	5.458781247871549E-001
-6.2789065E-001	5.574125553722737E-001
-6.2677467E-001	5.687024598182360E-001
-6.2591487E-001	5.802742052756074E-001
-6.2482524E-001	5.915697154209592E-001
-6.2389094E-001	6.030362112516610E-001
-6.2291771E-001	6.144320797055158E-001
-6.2183440E-001	6.260492258049828E-001
-6.2084019E-001	6.374390248071258E-001
-6.1988437E-001	6.488324502773990E-001
-6.1874902E-001	6.602809589908105E-001
-6.1784834E-001	6.717817655040150E-001
-6.1685431E-001	6.831508256081074E-001
-6.1585963E-001	6.945799538796691E-001
-6.1497045E-001	7.059564086926073E-001
-6.1377174E-001	7.174893329264922E-001
-6.1289817E-001	7.289492769373798E-001
-6.1191267E-001	7.403252679993058E-001
-6.1082923E-001	7.515485651653115E-001
-6.1004502E-001	7.630606094306280E-001
-6.0879034E-001	7.741605176346189E-001
-6.0781109E-001	7.856954555544622E-001
-6.0679793E-001	7.968302133182696E-001
-6.0601014E-001	8.081518700357488E-001
-6.0482901E-001	8.192511803849949E-001
-6.0383946E-001	8.307995060803739E-001
-6.0291624E-001	8.417580436012990E-001
-6.0184842E-001	8.530931699055238E-001
-6.0080272E-001	8.644449371430607E-001
-5.9979808E-001	8.759214936638866E-001
-5.9875387E-001	8.870315290987474E-001
-5.9787047E-001	8.984610224487604E-001
-5.9687251E-001	9.095059206878169E-001
-5.9583336E-001	9.211291930189880E-001
-5.9476358E-001	9.322527328299124E-001
-5.9377074E-001	9.433325312211416E-001
-5.9287900E-001	9.545236119517568E-001
-5.9189284E-001	9.656812674193462E-001
-5.9079146E-001	9.768493162706547E-001
-5.8980745E-001	9.883072145835108E-001
-5.8885539E-001	9.993929026855373E-001
-5.8793336E-001	1.010497477434297E+000
-5.8686715E-001	1.021499175854308E+000
-5.8580542E-001	1.032577999764021E+000
-5.8478695E-001	1.043636304025956E+000
-5.8380038E-001	1.054681402941542E+000
-5.8296782E-001	1.066059585384753E+000
-5.8185631E-001	1.077078330115103E+000
-5.8094412E-001	1.087925818921244E+000
-5.7971025E-001	1.100919168132052E+000
-5.7870972E-001	1.113689575029404E+000
-5.7762086E-001	1.125081657259559E+000
-5.7658553E-001	1.135722017950480E+000
-5.7560933E-001	1.147140749950628E+000
-5.7465643E-001	1.157894532299704E+000
-5.7361478E-001	1.168982849352813E+000
-5.7265484E-001	1.179859072797829E+000
-5.7171720E-001	1.191199560822161E+000
-5.7068193E-001	1.202113603687819E+000
-5.6969965E-001	1.213094560084517E+000
-5.6861800E-001	1.223944639994039E+000
-5.6765157E-001	1.234928748416143E+000
-5.6663954E-001	1.246115206292386E+000
-5.6569767E-001	1.256809554442214E+000
-5.6462252E-001	1.267844053402261E+000
-5.6360686E-001	1.278719219344637E+000
-5.6266063E-001	1.289948915855753E+000
-5.6165582E-001	1.300816765805206E+000
-5.6064945E-001	1.311553237752783E+000
-5.5959415E-001	1.322494733940674E+000
-5.5868846E-001	1.333537478844649E+000
-5.5769068E-001	1.344200053838669E+000
-5.5664533E-001	1.354848357262433E+000
-5.5568290E-001	1.365770065061504E+000
-5.5466068E-001	1.376654886399157E+000
-5.5367661E-001	1.387081826864573E+000
-5.5262697E-001	1.398486773293499E+000
-5.5160689E-001	1.408928232336489E+000
-5.5056322E-001	1.419994548515024E+000
-5.4964483E-001	1.430452709223290E+000
-5.4865873E-001	1.441712011341695E+000
-5.4760128E-001	1.452244223267940E+000
-5.4662675E-001	1.463176424124519E+000
-5.4564273E-001	1.473972975655844E+000
-5.4471892E-001	1.484639247120533E+000
-5.4363424E-001	1.495343436165454E+000
-5.4262292E-001	1.506503974122030E+000
-5.4160762E-001	1.517240015720876E+000
-5.4065305E-001	1.527919501781177E+000
-5.3968602E-001	1.538389037880627E+000
-5.3868246E-001	1.549125272642691E+000
-5.3766286E-001	1.559864763040018E+000
-5.3675079E-001	1.570271934348121E+000
-5.3560060E-001	1.580846315732708E+000
-5.3459722E-001	1.591105543628196E+000
-5.3363949E-001	1.601768444533697E+000
-5.3262740E-001	1.612271647210473E+000
-5.3160644E-001	1.623023111165523E+000
-5.3073615E-001	1.633271285781163E+000
-5.2971685E-001	1.643826276063930E+000
-5.2868080E-001	1.654160426844633E+000
-5.2767825E-001	1.665441451525240E+000
-5.2665246E-001	1.675312813785347E+000
-5.2570295E-001	1.686084289686811E+000
-5.2472764E-001	1.696472691716963E+000
-5.2371764E-001	1.707336006617105E+000
-5.2265406E-001	1.717735308833831E+000
-5.2173448E-001	1.728404095051467E+000
-5.2066451E-001	1.739162030595320E+000
-5.1968515E-001	1.749410528406202E+000
-5.1863146E-001	1.760169922201737E+000
-5.1761711E-001	1.770731970115939E+000
-5.1668417E-001	1.781068754627938E+000
-5.1567948E-001	1.791347589481759E+000
-5.1456839E-001	1.801646059309995E+000
-5.1363462E-001	1.811295805749367E+000
-5.1263845E-001	1.821552393337093E+000
-5.1169211E-001	1.832725208390652E+000
-5.1067984E-001	1.843029071071484E+000
-5.0967562E-001	1.853343722996895E+000
-5.0864494E-001	1.863554546001502E+000
-5.0771838E-001	1.873738298537545E+000
-5.0670719E-001	1.884083499235129E+000
-5.0560093E-001	1.894345018533031E+000
-5.0471908E-001	1.904983922011311E+000
-5.0372255E-001	1.915155095910571E+000
-5.0261003E-001	1.925182621357202E+000
-5.0173360E-001	1.935576095901155E+000
-5.0067276E-001	1.945676506393490E+000
-4.9959704E-001	1.955908442064915E+000
-4.9875855E-001	1.966060820001140E+000
-4.9766269E-001	1.976210259453023E+000
-4.9659383E-001	1.986368043639484E+000
-4.9561605E-001	1.996679999762110E+000
-4.9456370E-001	2.005874359221369E+000
-4.9362242E-001	2.016453932040669E+000
-4.9266559E-001	2.026651186247665E+000
-4.9172372E-001	2.036885948920697E+000
-4.9063930E-001	2.046957648846856E+000
-4.8965719E-001	2.057056415136216E+000
-4.8873886E-001	2.067053627084803E+000
-4.8765862E-001	2.077512916807230E+000
-4.8663732E-001	2.087565266147820E+000
-4.8559174E-001	2.097810776145380E+000
-4.8464119E-001	2.107992136910056E+000
-4.8368236E-001	2.117721629915422E+000
-4.8267204E-001	2.128015924383092E+000
-4.8169428E-001	2.137692929183823E+000
-4.8065642E-001	2.147997133157878E+000
-4.7964138E-001	2.157729146105276E+000
-4.7865379E-001	2.167585594954563E+000
-4.7761196E-001	2.177651911146103E+000
-4.7664505E-001	2.187368194814084E+000
-4.7562566E-001	2.196992118993656E+000
-4.7457808E-001	2.207477806894860E+000
-4.7362328E-001	2.217122966492617E+000
-4.7264031E-001	2.227196495638655E+000
-4.7162443E-001	2.237117552094990E+000
-4.7064820E-001	2.247575055669840E+000
-4.6972933E-001	2.257357177941664E+000
-4.6865088E-001	2.266891513709677E+000
-4.6771955E-001	2.276558563389166E+000
-4.6665713E-001	2.286336921485166E+000
-4.6566197E-001	2.296163717629724E+000
-4.6469572E-001	2.305923153680773E+000
-4.6364787E-001	2.315582586396857E+000
-4.6264252E-001	2.325475390034690E+000
-4.6168226E-001	2.335097275398397E+000
-4.6060714E-001	2.345133242097269E+000
-4.5961803E-001	2.354453378529460E+000
-4.5863146E-001	2.363362275615881E+000
-4.5762414E-001	2.373379943341938E+000
-4.5674050E-001	2.382304644695031E+000
-4.5567030E-001	2.392314708343260E+000
-4.5465893E-001	2.401606032286654E+000
-4.5364454E-001	2.411500931889931E+000
-4.5264202E-001	2.421066471823945E+000
-4.5162746E-001	2.429852697858683E+000
-4.5063674E-001	2.439699199464592E+000
-4.4969577E-001	2.449315342638229E+000
-4.4864661E-001	2.459399931024822E+000
-4.4770625E-001	2.468872749143177E+000
-4.4659507E-001	2.478384695947174E+000
-4.4560999E-001	2.487227166968360E+000
-4.4461152E-001	2.496694749152216E+000
-4.4374412E-001	2.506203097049841E+000
-4.4270512E-001	2.515856247161317E+000
-4.4168013E-001	2.525599223872021E+000
-4.4066042E-001	2.534829782444866E+000
-4.3968248E-001	2.544207073472176E+000
-4.3857202E-001	2.553509637437479E+000
-4.3768123E-001	2.562958158410041E+000
-4.3651307E-001	2.572460246858775E+000
-4.3566647E-001	2.582126396121815E+000
-4.3458006E-001	2.590898967473008E+000
-4.3366593E-001	2.600432385725018E+000
-4.3265620E-001	2.609349500801827E+000
-4.3162617E-001	2.619305846578563E+000
-4.3063039E-001	2.628019595311750E+000
-4.2972630E-001	2.637454695723676E+000
-4.2869177E-001	2.646773289317334E+000
-4.2761329E-001	2.656171863553709E+000
-4.2668357E-001	2.665415315440411E+000
-4.2569891E-001	2.674973477525017E+000
-4.2469335E-001	2.684263161762985E+000
-4.2376596E-001	2.693190835140371E+000
-4.2264959E-001	2.702265950383662E+000
-4.2171109E-001	2.711037645461388E+000
-4.2074674E-001	2.720527168777257E+000
-4.1960680E-001	2.729908231115654E+000
-4.1867509E-001	2.739052052851085E+000
-4.1764712E-001	2.747462533138423E+000
-4.1663906E-001	2.756949436186583E+000
-4.1571084E-001	2.765847381894240E+000
-4.1470048E-001	2.774356923721463E+000
-4.1363609E-001	2.783642236308683E+000
-4.1266170E-001	2.792189581802605E+000
-4.1170186E-001	2.801437130956731E+000
-4.1071489E-001	2.810779190989166E+000
-4.0967900E-001	2.819591669572731E+000
-4.0867749E-001	2.827865729453393E+000
-4.0761393E-001	2.836945901023924E+000
-4.0668634E-001	2.845292625603854E+000
-4.0570647E-001	2.854680150747299E+000
-4.0468404E-001	2.862664824304112E+000
-4.0363395E-001	2.871818221553625E+000
-4.0268052E-001	2.880857302358848E+000
-4.0168315E-001	2.890082969264029E+000
-4.0059102E-001	2.898451199686093E+000
-3.9965045E-001	2.907204475391794E+000
-3.9862421E-001	2.916681350567949E+000
-3.9764988E-001	2.924924144590343E+000
-3.9665055E-001	2.933102263344665E+000
-3.9563078E-001	2.942524523424595E+000
-3.9466780E-001	2.950972067537137E+000
-3.9366826E-001	2.959016966323048E+000
-3.9263326E-001	2.967976129611330E+000
-3.9165345E-001	2.976261899979022E+000
-3.9064014E-001	2.984380481971640E+000
-3.8962761E-001	2.991439204701152E+000
-3.8860857E-001	3.000845283821761E+000
-3.8762960E-001	3.009596077104412E+000
-3.8668421E-001	3.018346937617316E+000
-3.8568988E-001	3.027005554901216E+000
-3.8473642E-001	3.034670253870672E+000
-3.8374022E-001	3.043630256445638E+000
-3.8267809E-001	3.051923497959422E+000
-3.8169092E-001	3.060907617763231E+000
-3.8067973E-001	3.068792618961925E+000
-3.7970537E-001	3.076095735861188E+000
-3.7867996E-001	3.084506069620456E+000
-3.7767678E-001	3.092963938371862E+000
-3.7662721E-001	3.101586095988762E+000
-3.7558350E-001	3.109926645954449E+000
-3.7467542E-001	3.117447058047830E+000
-3.7368858E-001	3.126031053011076E+000
-3.7269863E-001	3.134007593985331E+000
-3.7169141E-001	3.141849651380838E+000
-3.7065771E-001	3.150074101156669E+000
-3.6958152E-001	3.157726679631082E+000
-3.6869130E-001	3.166123112594654E+000
-3.6767775E-001	3.173268378884721E+000
-3.6662927E-001	3.182205362564147E+000
-3.6570010E-001	3.189115167216016E+000
-3.6470434E-001	3.197638623692363E+000
-3.6367282E-001	3.205026408915781E+000
-3.6268491E-001	3.213890098863185E+000
-3.6169365E-001	3.221671012816600E+000
-3.6076826E-001	3.229559708338925E+000
-3.5972676E-001	3.237738702032289E+000
-3.5863203E-001	3.245681851550373E+000
-3.5773513E-001	3.254273142571467E+000
-3.5674277E-001	3.262793203746838E+000
-3.5569257E-001	3.270077753950062E+000
-3.5470620E-001	3.278227696551113E+000
-3.5369623E-001	3.286741899119491E+000
-3.5276434E-001	3.292669896174360E+000
-3.5171908E-001	3.301916261984900E+000
-3.5067973E-001	3.310817146190892E+000
-3.4974602E-001	3.316358216934724E+000
-3.4872279E-001	3.324412073231674E+000
-3.4776855E-001	3.333359026798503E+000
-3.4676605E-001	3.339403655793937E+000
-3.4568644E-001	3.348156193394360E+000
-3.4474826E-001	3.356736026980272E+000
-3.4377629E-001	3.362739604380398E+000
-3.4270880E-001	3.372103067634100E+000
-3.4181792E-001	3.378112116897551E+000
-3.4068242E-001	3.386901868162339E+000
-3.3971259E-001	3.392977615627970E+000
-3.3869582E-001	3.401752466404884E+000
-3.3767059E-001	3.408057914839852E+000
-3.3669811E-001	3.416091547571597E+000
-3.3576742E-001	3.425288115386607E+000
-3.3469215E-001	3.430045377877033E+000
-3.3376667E-001	3.439082349384847E+000
-3.3271301E-001	3.445913651475195E+000
-3.3173084E-001	3.451932035110616E+000
-3.3076295E-001	3.460927855120602E+000
-3.2972053E-001	3.467015588173162E+000
-3.2868978E-001	3.476452634842303E+000
-3.2769153E-001	3.483514653051472E+000
-3.2673949E-001	3.491388956705727E+000
-3.2572442E-001	3.498073963655365E+000
-3.2470939E-001	3.505056304667917E+000
-3.2376948E-001	3.512615679590795E+000
-3.2275426E-001	3.520271669383405E+000
-3.2167822E-001	3.526877496555436E+000
-3.2067478E-001	3.535208624822111E+000
-3.1976518E-001	3.539828809323136E+000
-3.1869966E-001	3.548575535990892E+000
-3.1776115E-001	3.557682880096962E+000
-3.1670141E-001	3.562396111311728E+000
-3.1577575E-001	3.568842305816403E+000
-3.1469893E-001	3.574423987556383E+000
-3.1369725E-001	3.583229290666395E+000
-3.1279108E-001	3.588873495730226E+000
-3.1173575E-001	3.597857074605109E+000
-3.1071943E-001	3.603228580620563E+000
-3.0974382E-001	3.610825544610124E+000
-3.0878207E-001	3.616891172749028E+000
-3.0772197E-001	3.624839531779308E+000
-3.0668688E-001	3.632950902537061E+000
-3.0570498E-001	3.637064364221359E+000
-3.0473241E-001	3.646522453336210E+000
-3.0376759E-001	3.650718938973212E+000
-3.0283383E-001	3.658258828851906E+000
-3.0184722E-001	3.667334179106611E+000
-3.0070406E-001	3.670624136924744E+000
-2.9978830E-001	3.680190959462422E+000
-2.9866821E-001	3.684044258616765E+000
-2.9778665E-001	3.692606601450180E+000
-2.9666957E-001	3.696667410157344E+000
-2.9573622E-001	3.706955981088754E+000
-2.9476535E-001	3.709889167988757E+000
-2.9375601E-001	3.719398534408331E+000
-2.9270622E-001	3.723267588031305E+000
-2.9175693E-001	3.732336248512620E+000
-2.9072767E-001	3.735420383237020E+000
-2.8976417E-001	3.745758494847593E+000
-2.8863677E-001	3.749608833480750E+000
-2.8772715E-001	3.759042453434734E+000
-2.8661871E-001	3.761906617701138E+000
-2.8580654E-001	3.770767632457954E+000
-2.8474528E-001	3.774966138380542E+000
-2.8378806E-001	3.782282056107213E+000
-2.8270757E-001	3.787321675706799E+000
-2.8180900E-001	3.794617240627623E+000
-2.8067955E-001	3.799736409252006E+000
-2.7971613E-001	3.807885362594217E+000
-2.7877429E-001	3.813693911389066E+000
-2.7771646E-001	3.821357155829993E+000
-2.7677202E-001	3.824643013102033E+000
-2.7567875E-001	3.830947767805185E+000
-2.7475634E-001	3.837113345901319E+000
-2.7371636E-001	3.842057359439366E+000
-2.7273440E-001	3.850022908162174E+000
-2.7170482E-001	3.853309055727827E+000
-2.7074188E-001	3.862041024698160E+000
-2.6974046E-001	3.864703555901869E+000
-2.6870099E-001	3.875026903210845E+000
-2.6773542E-001	3.876808468942286E+000
-2.6672441E-001	3.884190048884463E+000
-2.6573884E-001	3.891641754941162E+000
-2.6468757E-001	3.893655917710724E+000
-2.6372090E-001	3.904509342930943E+000
-2.6276311E-001	3.906143346046704E+000
-2.6174450E-001	3.915212757609510E+000
-2.6068917E-001	3.916750131933775E+000
-2.5972649E-001	3.925780327557458E+000
-2.5867823E-001	3.928552137480834E+000
-2.5767952E-001	3.935757528300655E+000
-2.5668994E-001	3.940975806287611E+000
-2.5572434E-001	3.944455722415917E+000
-2.5485528E-001	3.954285350110794E+000
-2.5376660E-001	3.954983274582535E+000
-2.5273588E-001	3.962997792495599E+000
-2.5177410E-001	3.966749618450795E+000
-2.5078940E-001	3.972416515146847E+000
-2.4978369E-001	3.976776213005721E+000
-2.4870203E-001	3.983207965890562E+000
-2.4776234E-001	3.988919479547492E+000
-2.4671018E-001	3.992640049921143E+000
-2.4573356E-001	3.999923445008418E+000
-2.4471132E-001	4.001792335495843E+000
-2.4367085E-001	4.010316747758139E+000
-2.4272278E-001	4.012530294753404E+000
-2.4178416E-001	4.021621343162337E+000
-2.4075365E-001	4.022299889061202E+000
-2.3967390E-001	4.030401209856466E+000
-2.3873548E-001	4.034050020906648E+000
-2.3777644E-001	4.040184109299254E+000
-2.3676859E-001	4.045716313431010E+000
-2.3574597E-001	4.047407270029737E+000
-2.3479903E-001	4.056886542174539E+000
-2.3372506E-001	4.056615977403936E+000
-2.3282412E-001	4.066325802493978E+000
-2.3173845E-001	4.066598577631865E+000
-2.3070833E-001	4.074872983019133E+000
-2.2977543E-001	4.077100659962056E+000
-2.2867003E-001	4.083719144264840E+000
-2.2777893E-001	4.087279357312120E+000
-2.2672036E-001	4.093702912330627E+000
-2.2575963E-001	4.096241949884986E+000
-2.2478235E-001	4.100356936555791E+000
-2.2369607E-001	4.109042503767540E+000
-2.2272494E-001	4.106707109345337E+000
-2.2176862E-001	4.117161874016006E+000
-2.2079502E-001	4.119316659591831E+000
-2.1980922E-001	4.123870433480661E+000
-2.1873172E-001	4.129354893335865E+000
-2.1776223E-001	4.132548732338122E+000
-2.1676373E-001	4.139014392539309E+000
-2.1579038E-001	4.140441948794162E+000
-2.1469912E-001	4.147294373423961E+000
-2.1376109E-001	4.149050168417119E+000
-2.1283074E-001	4.156858875336063E+000
-2.1183495E-001	4.159329369112296E+000
-2.1081080E-001	4.164026139510980E+000
-2.0981167E-001	4.169616684951039E+000
-2.0866853E-001	4.172570076253677E+000
-2.0772688E-001	4.180219050358829E+000
-2.0676345E-001	4.179077307024428E+000
-2.0578909E-001	4.188529611185743E+000
-2.0476453E-001	4.189253409703575E+000
-2.0375337E-001	4.194354475832601E+000
-2.0272748E-001	4.200213883210091E+000
-2.0176420E-001	4.202734954379226E+000
-2.0081046E-001	4.209784387701419E+000
-1.9974901E-001	4.210142944146085E+000
-1.9871593E-001	4.217697619839941E+000
-1.9776341E-001	4.218489173987690E+000
-1.9669032E-001	4.221495158142503E+000
-1.9583249E-001	4.228954290902179E+000
-1.9474719E-001	4.228387243272095E+000
-1.9379011E-001	4.237891084618042E+000
-1.9272099E-001	4.238386304290188E+000
-1.9168657E-001	4.247633387162168E+000
-1.9073887E-001	4.245962784246188E+000
-1.8974569E-001	4.252314624962988E+000
-1.8876031E-001	4.258175272189519E+000
-1.8777674E-001	4.256558105901433E+000
-1.8666032E-001	4.262839262132296E+000
-1.8574876E-001	4.266922942054327E+000
-1.8475899E-001	4.267167925282749E+000
-1.8379299E-001	4.275011539459228E+000
-1.8281527E-001	4.275211883147946E+000
-1.8174170E-001	4.280663354529267E+000
-1.8069804E-001	4.280733099138298E+000
-1.7978166E-001	4.287525814704466E+000
-1.7876323E-001	4.288168104710422E+000
-1.7780785E-001	4.291281332359716E+000
-1.7679808E-001	4.296996439496695E+000
-1.7577542E-001	4.294232413724615E+000
-1.7472482E-001	4.303959336519132E+000
-1.7381003E-001	4.302753381155142E+000
-1.7281581E-001	4.307223420452182E+000
-1.7186293E-001	4.312770713946904E+000
-1.7075372E-001	4.308123483701991E+000
-1.6977242E-001	4.318033694669043E+000
-1.6886599E-001	4.317806202533390E+000
-1.6779284E-001	4.324088587253189E+000
-1.6678418E-001	4.322581673661873E+000
-1.6577189E-001	4.329365873338915E+000
-1.6473228E-001	4.331111917893102E+000
-1.6379465E-001	4.331195854478425E+000
-1.6280474E-001	4.339949979716820E+000
-1.6173258E-001	4.337131485342987E+000
-1.6079074E-001	4.341996267989842E+000
-1.5972832E-001	4.343869702201937E+000
-1.5878358E-001	4.345493917663902E+000
-1.5780970E-001	4.351418871570523E+000
-1.5681128E-001	4.348751223892279E+000
-1.5579662E-001	4.355710057196777E+000
-1.5479790E-001	4.353606232890388E+000
-1.5373050E-001	4.361493095700268E+000
-1.5275620E-001	4.363560154482180E+000
-1.5180565E-001	4.362516410924792E+000
-1.5077595E-001	4.367373467378626E+000
-1.4977220E-001	4.369152704874665E+000
-1.4877138E-001	4.369367010063598E+000
-1.4783201E-001	4.373662473917378E+000
-1.4681345E-001	4.376682765505945E+000
-1.4579247E-001	4.375692988435432E+000
-1.4482160E-001	4.381806210023470E+000
-1.4383073E-001	4.379064023494735E+000
-1.4274824E-001	4.387047665538624E+000
-1.4176416E-001	4.385952806782328E+000
-1.4079645E-001	4.388734825783312E+000
-1.3976954E-001	4.391959065088514E+000
-1.3889830E-001	4.391422398938374E+000
-1.3777278E-001	4.398003945747995E+000
-1.3686785E-001	4.394015275217871E+000
-1.3573831E-001	4.401661310924396E+000
-1.3475889E-001	4.398975423088793E+000
-1.3380918E-001	4.405324368013275E+000
-1.3271955E-001	4.404041620806098E+000
-1.3181604E-001	4.407050459473226E+000
-1.3081543E-001	4.409641176462181E+000
-1.2982832E-001	4.408297569382121E+000
-1.2877709E-001	4.416020832679891E+000
-1.2774107E-001	4.410841111783625E+000
-1.2680861E-001	4.417559055093292E+000
-1.2575810E-001	4.417354950198416E+000
-1.2479504E-001	4.416638372121026E+000
-1.2377518E-001	4.424908574719232E+000
-1.2270982E-001	4.420226571184630E+000
-1.2185664E-001	4.425405963151547E+000
-1.2075359E-001	4.426376418638014E+000
-1.1979669E-001	4.425186593775390E+000
-1.1880201E-001	4.430744515524978E+000
-1.1782707E-001	4.427844901687649E+000
-1.1677451E-001	4.433756976767825E+000
-1.1579213E-001	4.432977326490274E+000
-1.1482652E-001	4.433786481330927E+000
-1.1382763E-001	4.439236256259470E+000
-1.1279762E-001	4.434562560328288E+000
-1.1183002E-001	4.440212844698536E+000
-1.1079717E-001	4.444994555027399E+000
-1.0973351E-001	4.439482658582019E+000
-1.0883924E-001	4.446980938867294E+000
-1.0770520E-001	4.441046777146852E+000
-1.0679718E-001	4.451607826120195E+000
-1.0577464E-001	4.446082656030327E+000
-1.0473777E-001	4.450144280989973E+000
-1.0375430E-001	4.454425966232520E+000
-1.0277749E-001	4.454349464840362E+000
-1.0182355E-001	4.455688792246349E+000
-1.0080544E-001	4.452132755150696E+000
-9.9882588E-002	4.459722409645735E+000
-9.8908715E-002	4.456386055107476E+000
-9.7842321E-002	4.459867489257696E+000
-9.6765995E-002	4.462578875047193E+000
-9.5811419E-002	4.461943618125392E+000
-9.4837338E-002	4.464574000931322E+000
-9.3784556E-002	4.466758205382924E+000
-9.2859462E-002	4.464943475193451E+000
-9.1782413E-002	4.470853001509369E+000
-9.0758137E-002	4.468619476865825E+000
-8.9754134E-002	4.470416707021229E+000
-8.8822044E-002	4.473194177572978E+000
-8.7826751E-002	4.469536295091673E+000
-8.6805984E-002	4.475042916006522E+000
-8.5779063E-002	4.479334928546244E+000
-8.4806681E-002	4.471650550210921E+000
-8.3778925E-002	4.479751087449214E+000
-8.2809769E-002	4.478548856965475E+000
-8.1801049E-002	4.480955123349488E+000
-8.0780074E-002	4.478757271612146E+000
-7.9815678E-002	4.485490337316731E+000
-7.8777172E-002	4.481130287603108E+000
-7.7813476E-002	4.483837464893313E+000
-7.6782614E-002	4.488710962853744E+000
-7.5814180E-002	4.487088800580409E+000
-7.4806355E-002	4.486282204588235E+000
-7.3777251E-002	4.492144420661703E+000
-7.2845459E-002	4.486008640240739E+000
-7.1798615E-002	4.494896310347087E+000
-7.0797265E-002	4.488311774069404E+000
-6.9827735E-002	4.495517144600548E+000
-6.8835825E-002	4.495363398834527E+000
-6.7729324E-002	4.493483642815967E+000
-6.6830166E-002	4.499547927467919E+000
-6.5810673E-002	4.495658297229696E+000
-6.4805038E-002	4.499922591159631E+000
-6.3784651E-002	4.501294664762629E+000
-6.2775344E-002	4.498126906929201E+000
-6.1858863E-002	4.505060607192199E+000
-6.0811050E-002	4.500748305960940E+000
-5.9836742E-002	4.501127284986001E+000
-5.8859095E-002	4.508330274925314E+000
-5.7811562E-002	4.502124903930564E+000
-5.6848720E-002	4.511362581893252E+000
-5.5789929E-002	4.503637152242050E+000
-5.4771140E-002	4.510980556960462E+000
-5.3755898E-002	4.511526593455564E+000
-5.2817702E-002	4.507625177547368E+000
-5.1808570E-002	4.515338291724490E+000
-5.0802663E-002	4.508783492225206E+000
-4.9809903E-002	4.517268514455623E+000
-4.8796996E-002	4.511923342943174E+000
-4.7831602E-002	4.515710827377120E+000
-4.6812963E-002	4.515188748853799E+000
-4.5759544E-002	4.516101398953676E+000
-4.4809915E-002	4.515259320554097E+000
-4.3835975E-002	4.518164497834690E+000
-4.2825818E-002	4.518283051473134E+000
-4.1822407E-002	4.519002292561467E+000
-4.0787697E-002	4.521970908950877E+000
-3.9846070E-002	4.519388735294342E+000
-3.8880769E-002	4.529809981588389E+000
-3.7792675E-002	4.518368142622499E+000
-3.6737762E-002	4.527298559745148E+000
-3.5841100E-002	4.520903540024698E+000
-3.4849830E-002	4.530442253307060E+000
-3.3849228E-002	4.521914082544818E+000
-3.2836869E-002	4.532188102072453E+000
-3.1811107E-002	4.527209790216556E+000
-3.0826833E-002	4.529528484852221E+000
-2.9851068E-002	4.530662160461162E+000
-2.8814381E-002	4.527156332024820E+000
-2.7757771E-002	4.532652543098834E+000
-2.6842162E-002	4.532477482777715E+000
-2.5832927E-002	4.531190737530025E+000
-2.4882173E-002	4.537356290552346E+000
-2.3877095E-002	4.530710545582508E+000
-2.2807570E-002	4.539738504423013E+000
-2.1822447E-002	4.531910313500283E+000
-2.0824561E-002	4.540077085769099E+000
-1.9818269E-002	4.534103847212252E+000
-1.8858815E-002	4.541674925773222E+000
-1.7824300E-002	4.535875819069643E+000
-1.6830666E-002	4.542401399325442E+000
-1.5809061E-002	4.538097911962744E+000
-1.4778213E-002	4.540443964805405E+000
-1.3773698E-002	4.544283324369687E+000
-1.2798971E-002	4.537458287345032E+000
-1.1802086E-002	4.548355228768699E+000
-1.0832550E-002	4.539852200834833E+000
-9.8724617E-003	4.545941797119589E+000
-8.8361017E-003	4.543210132326330E+000
-7.8398567E-003	4.542935498334757E+000
-6.8519795E-003	4.546754354128127E+000
-5.8116941E-003	4.541049061490554E+000
-4.8214956E-003	4.549643469077562E+000
-3.7824954E-003	4.545306650024884E+000
-2.8902958E-003	4.549540617740441E+000
-1.8756822E-003	4.547860956302401E+000
-8.2119659E-004	4.546147379610282E+000
2.7573688E-004	4.552885852814953E+000
1.1821343E-003	4.549482305844631E+000
2.1897391E-003	4.553383926550552E+000
3.2081893E-003	4.551546474348811E+000
4.2085550E-003	4.552773546289522E+000
5.1270667E-003	4.549311732804362E+000
6.1232252E-003	4.554761351084128E+000
6.6019897E-003	4.552652200063065E+000
6.7089018E-003	4.551201462745667E+000