EC-Lab ASCII FILE
Nb header lines : 63                          

Linear Sweep Voltammetry

Run on channel : 6 (SN 13765)
User : 
Electrode connection : standard
Potential control : Ewe
Ewe ctrl range : min = -2.50 V, max = 2.50 V
Ewe,I filtering : <None>
Safety Limits :
	Do not start on E overload
Channel : Floating
Acquisition started on : 07/13/2026 14:37:14.043
Technique started on : 07/13/2026 14:37:15.040
Loaded Setting File :  C:\Users\EEM-620\Desktop\Wade\20260630\LSV 1mg MoS2 1_C06.mpr
Saved on :
	File : N719_0713-0-4_C06.mpr
	Directory : C:\Users\EEM-620\Desktop\Wade\abao\20260713\
	Host : 192.109.209.200
Device : VSP-300 (SN 0025)
Address : 192.109.209.129
EC-LAB for windows v11.62 (software)
Internet server v27.00 (firmware)
Command interpretor v12.02 (firmware)
Electrode material : Au/Pd
Initial state : 
Electrolyte : NaCl (0.2M)
Comments : Fe(CN)63-/Fe(CN)64- 5.10-3 M
Cable : ULC
Reference electrode : SCE Saturated Calomel Electrode (0.241 V)
Electrode surface area : 0.001 cm2
Characteristic mass : 0.001 g
Equivalent Weight : 0.000 g/eq.
Density : 0.000 g/cm3
Volume (V) : 0.001 cm3
Cycle Definition : Charge/Discharge alternance
tR (h:m:s)          0:00:5.0000         
dER/dt (mV/h)       0.0                 
dER (mV)            0                   
dtR (s)             0.0500              
dE/dt               10.000              
dE/dt unit          mV/s                
Ei (V)              -0.800              
vs.                 Ref                 
EL (V)              0.010               
vs.                 Ref                 
record              <I>                 
dI                  0.000               
unit dI             uA                  
tI (s)              0.0000              
step percent        50                  
N                   10                  
E range min (V)     -2.500              
E range max (V)     2.500               
I Range             Auto                
I Range min         Unset               
I Range max         Unset               
I Range init        Unset               
Bandwidth           8                   

Ewe/V	<I>/mA	
-6.7504346E-001	0.000000000000000E+000
-6.7519236E-001	0.000000000000000E+000
-6.7489457E-001	0.000000000000000E+000
-6.7511982E-001	0.000000000000000E+000
-6.7497474E-001	0.000000000000000E+000
-6.7493272E-001	0.000000000000000E+000
-6.7533749E-001	0.000000000000000E+000
-6.7484111E-001	0.000000000000000E+000
-6.7547876E-001	0.000000000000000E+000
-6.7521149E-001	0.000000000000000E+000
-6.7485255E-001	0.000000000000000E+000
-6.7513508E-001	0.000000000000000E+000
-6.7495179E-001	0.000000000000000E+000
-6.7489457E-001	0.000000000000000E+000
-6.7515039E-001	0.000000000000000E+000
-6.7521143E-001	0.000000000000000E+000
-6.7509693E-001	0.000000000000000E+000
-6.7503202E-001	0.000000000000000E+000
-6.7507786E-001	0.000000000000000E+000
-6.7492509E-001	0.000000000000000E+000
-6.7534131E-001	0.000000000000000E+000
-6.7505497E-001	0.000000000000000E+000
-6.7492127E-001	0.000000000000000E+000
-6.7514277E-001	0.000000000000000E+000
-6.7506260E-001	0.000000000000000E+000
-6.7523438E-001	0.000000000000000E+000
-6.7503965E-001	0.000000000000000E+000
-6.7487925E-001	0.000000000000000E+000
-6.7494416E-001	0.000000000000000E+000
-6.7526108E-001	0.000000000000000E+000
-6.7488694E-001	0.000000000000000E+000
-6.7511982E-001	0.000000000000000E+000
-6.7518473E-001	0.000000000000000E+000
-6.7505872E-001	0.000000000000000E+000
-6.7523056E-001	0.000000000000000E+000
-6.7488688E-001	0.000000000000000E+000
-6.7514658E-001	0.000000000000000E+000
-6.7500913E-001	0.000000000000000E+000
-6.7493653E-001	0.000000000000000E+000
-6.7508930E-001	0.000000000000000E+000
-6.7501289E-001	0.000000000000000E+000
-6.7477238E-001	0.000000000000000E+000
-6.7524201E-001	0.000000000000000E+000
-6.7517710E-001	0.000000000000000E+000
-6.7508930E-001	0.000000000000000E+000
-6.7517710E-001	0.000000000000000E+000
-6.7533749E-001	0.000000000000000E+000
-6.7499381E-001	0.000000000000000E+000
-6.7483723E-001	0.000000000000000E+000
-6.7482579E-001	0.000000000000000E+000
-6.7503583E-001	0.000000000000000E+000
-6.7490214E-001	0.000000000000000E+000
-6.7512363E-001	0.000000000000000E+000
-6.7520005E-001	0.000000000000000E+000
-6.7533368E-001	0.000000000000000E+000
-6.7541766E-001	0.000000000000000E+000
-6.7499769E-001	0.000000000000000E+000
-6.7502058E-001	0.000000000000000E+000
-6.7487544E-001	0.000000000000000E+000
-6.7497092E-001	0.000000000000000E+000
-6.7529166E-001	0.000000000000000E+000
-6.8066776E-001	0.000000000000000E+000
-6.8070596E-001	0.000000000000000E+000
-7.8911495E-001	-1.401624739170074E+000
-7.8863281E-001	-1.392304363017239E+000
-7.8774691E-001	-1.377451191069902E+000
-7.8677964E-001	-1.363966978948433E+000
-7.8576207E-001	-1.349878176637942E+000
-7.8473663E-001	-1.337123901617751E+000
-7.8377211E-001	-1.323064004933393E+000
-7.8270704E-001	-1.310388178443249E+000
-7.8172767E-001	-1.296731495194965E+000
-7.8068542E-001	-1.283746358835034E+000
-7.7973855E-001	-1.271212102352727E+000
-7.7876902E-001	-1.257831306783139E+000
-7.7769548E-001	-1.245808095843698E+000
-7.7672929E-001	-1.231769954413732E+000
-7.7574450E-001	-1.219839930672335E+000
-7.7478445E-001	-1.206617817282677E+000
-7.7376455E-001	-1.194105900119435E+000
-7.7276534E-001	-1.181188233886607E+000
-7.7169180E-001	-1.168770683998313E+000
-7.7080011E-001	-1.156342243902282E+000
-7.6975298E-001	-1.143073162546862E+000
-7.6879239E-001	-1.130945780762918E+000
-7.6770216E-001	-1.117816225288500E+000
-7.6672250E-001	-1.105651720806401E+000
-7.6577073E-001	-1.092652460077296E+000
-7.6472753E-001	-1.080269478831914E+000
-7.6375699E-001	-1.067949064213921E+000
-7.6276726E-001	-1.055059686165165E+000
-7.6183766E-001	-1.042782810359190E+000
-7.6077145E-001	-1.030133511733123E+000
-7.5984854E-001	-1.017825367688032E+000
-7.5880212E-001	-1.005588507720670E+000
-7.5768691E-001	-9.926255948289671E-001
-7.5684679E-001	-9.806095783909150E-001
-7.5574434E-001	-9.679692701741001E-001
-7.5480390E-001	-9.556056997842282E-001
-7.5378960E-001	-9.433648927196003E-001
-7.5284219E-001	-9.305758107867455E-001
-7.5173849E-001	-9.185855109934451E-001
-7.5086242E-001	-9.054988209763124E-001
-7.4975324E-001	-8.938014936391916E-001
-7.4875641E-001	-8.805400333194804E-001
-7.4778479E-001	-8.693401722074459E-001
-7.4675751E-001	-8.563304337914417E-001
-7.4585748E-001	-8.444847692218111E-001
-7.4474812E-001	-8.320821791598476E-001
-7.4384582E-001	-8.201565576924210E-001
-7.4275655E-001	-8.076200501786348E-001
-7.4179965E-001	-7.949631623570248E-001
-7.4078590E-001	-7.831465329423040E-001
-7.3990828E-001	-7.704008859064846E-001
-7.3879665E-001	-7.583549555248816E-001
-7.3779684E-001	-7.454463620152794E-001
-7.3682463E-001	-7.335956719600487E-001
-7.3571044E-001	-7.209063844300685E-001
-7.3478055E-001	-7.097323825927830E-001
-7.3379916E-001	-6.971115545128219E-001
-7.3282713E-001	-6.851366284346909E-001
-7.3179764E-001	-6.729871569960206E-001
-7.3078960E-001	-6.603323363319591E-001
-7.2979426E-001	-6.487818330574204E-001
-7.2882760E-001	-6.355689852326005E-001
-7.2771841E-001	-6.242264970723141E-001
-7.2682929E-001	-6.113457002238949E-001
-7.2584939E-001	-5.995812867250692E-001
-7.2480464E-001	-5.870924747928434E-001
-7.2380829E-001	-5.750941836228360E-001
-7.2286922E-001	-5.631471452889620E-001
-7.2180778E-001	-5.507808722969578E-001
-7.2078508E-001	-5.389918507494365E-001
-7.1979469E-001	-5.262462315322054E-001
-7.1875584E-001	-5.144891820296076E-001
-7.1782362E-001	-5.023036178976188E-001
-7.1680111E-001	-4.900660080214330E-001
-7.1584332E-001	-4.779558895776663E-001
-7.1478260E-001	-4.655561358100799E-001
-7.1377170E-001	-4.537818460828729E-001
-7.1262610E-001	-4.408957585605124E-001
-7.1161926E-001	-4.271191484122365E-001
-7.1046889E-001	-4.145522010685117E-001
-7.0964634E-001	-4.031005664958398E-001
-7.0857841E-001	-3.901337282042263E-001
-7.0757365E-001	-3.789491317821327E-001
-7.0640433E-001	-3.662879273396058E-001
-7.0562160E-001	-3.547209633031372E-001
-7.0446801E-001	-3.420810014768341E-001
-7.0351589E-001	-3.303258820218336E-001
-7.0254743E-001	-3.179593713333200E-001
-7.0154250E-001	-3.062944959642153E-001
-7.0049798E-001	-2.938570749945435E-001
-6.9951314E-001	-2.822490295533218E-001
-6.9857484E-001	-2.696933204446128E-001
-6.9756913E-001	-2.587530900200909E-001
-6.9665724E-001	-2.456348946111064E-001
-6.9557303E-001	-2.344772959197007E-001
-6.9452584E-001	-2.218141385167802E-001
-6.9351119E-001	-2.106902540695890E-001
-6.9254106E-001	-1.982609358857628E-001
-6.9155502E-001	-1.860140479877082E-001
-6.9052684E-001	-1.749695791448991E-001
-6.8960553E-001	-1.624904983435500E-001
-6.8854302E-001	-1.503877626346429E-001
-6.8756443E-001	-1.389262980643518E-001
-6.8658823E-001	-1.267438876718563E-001
-6.8547922E-001	-1.145203657559999E-001
-6.8448645E-001	-1.027883755526056E-001
-6.8349797E-001	-9.123394242487892E-002
-6.8245959E-001	-7.922404950256084E-002
-6.8144137E-001	-6.694529138298472E-002
-6.8041420E-001	-5.575534926416958E-002
-6.7956913E-001	-4.392919727440414E-002
-6.7845356E-001	-3.019047636318839E-002
-6.7730427E-001	-1.654563469519078E-002
-6.7620587E-001	-4.629726876092984E-003
-6.7515051E-001	7.156321994477410E-003
-6.7424339E-001	1.916211996986356E-002
-6.7322171E-001	3.138415511988724E-002
-6.7223799E-001	4.301880566506744E-002
-6.7123479E-001	5.491518926013395E-002
-6.7024338E-001	6.684369080431551E-002
-6.6909236E-001	7.884334255423830E-002
-6.6816223E-001	9.076556982472539E-002
-6.6718340E-001	1.028762229796253E-001
-6.6595322E-001	1.158525446747043E-001
-6.6477960E-001	1.292588961831371E-001
-6.6388381E-001	1.413342531046109E-001
-6.6292793E-001	1.530917719937861E-001
-6.6198444E-001	1.647929654937252E-001
-6.6098720E-001	1.763588842866870E-001
-6.5988427E-001	1.880830916472607E-001
-6.5886873E-001	1.998019532008128E-001
-6.5773928E-001	2.116364016094145E-001
-6.5687490E-001	2.233918264715204E-001
-6.5586823E-001	2.352221445051971E-001
-6.5485877E-001	2.468845758725102E-001
-6.5385485E-001	2.584688060192605E-001
-6.5297318E-001	2.700915279011848E-001
-6.5192741E-001	2.820389663662617E-001
-6.5091860E-001	2.934094361477975E-001
-6.4988661E-001	3.051787882133399E-001
-6.4891928E-001	3.166226108592967E-001
-6.4783609E-001	3.283527764250278E-001
-6.4701390E-001	3.400533996841792E-001
-6.4581287E-001	3.514554918295243E-001
-6.4487952E-001	3.629990990653083E-001
-6.4395416E-001	3.747380870324335E-001
-6.4284599E-001	3.864359183029986E-001
-6.4181387E-001	3.980556658158685E-001
-6.4084953E-001	4.097814296310394E-001
-6.3979977E-001	4.211491407757553E-001
-6.3882768E-001	4.325857919951286E-001
-6.3788849E-001	4.440771525776892E-001
-6.3686961E-001	4.557693504762881E-001
-6.3595408E-001	4.671720132507673E-001
-6.3488889E-001	4.787642251745154E-001
-6.3380671E-001	4.903621251384411E-001
-6.3291574E-001	5.018472530085711E-001
-6.3190323E-001	5.134876907194794E-001
-6.3094866E-001	5.250385412601400E-001
-6.2979323E-001	5.366231821891316E-001
-6.2892991E-001	5.481690016562641E-001
-6.2788659E-001	5.597398852308588E-001
-6.2682873E-001	5.712237456744500E-001
-6.2588608E-001	5.826427332297247E-001
-6.2479442E-001	5.941824925442561E-001
-6.2387449E-001	6.058962156789161E-001
-6.2287700E-001	6.174305477741981E-001
-6.2205076E-001	6.286941885396313E-001
-6.2076229E-001	6.401427257806054E-001
-6.1987710E-001	6.512985037588734E-001
-6.1890984E-001	6.626859746735398E-001
-6.1775136E-001	6.741204719852503E-001
-6.1690819E-001	6.854026969342297E-001
-6.1586326E-001	6.967530389212904E-001
-6.1497599E-001	7.083244950867313E-001
-6.1386055E-001	7.197417945221662E-001
-6.1286336E-001	7.309490078715228E-001
-6.1183441E-001	7.421785339229459E-001
-6.1100590E-001	7.535829142563841E-001
-6.0973388E-001	7.651941251975556E-001
-6.0881317E-001	7.761610954608393E-001
-6.0777223E-001	7.875248288942727E-001
-6.0684019E-001	7.986965589225292E-001
-6.0593128E-001	8.099701721212167E-001
-6.0485232E-001	8.212527905901315E-001
-6.0380250E-001	8.324485149372549E-001
-6.0280448E-001	8.442430842077080E-001
-6.0188830E-001	8.554945760579038E-001
-6.0075259E-001	8.667595699705455E-001
-5.9986663E-001	8.778493032726402E-001
-5.9877807E-001	8.889644386039812E-001
-5.9783363E-001	9.001359191757636E-001
-5.9687221E-001	9.114987551586395E-001
-5.9577370E-001	9.227207223022447E-001
-5.9471285E-001	9.340306777093179E-001
-5.9401083E-001	9.453519780715087E-001
-5.9281749E-001	9.564815283649510E-001
-5.9190750E-001	9.675770203272567E-001
-5.9096098E-001	9.786496385216523E-001
-5.8989060E-001	9.900318651839513E-001
-5.8885080E-001	1.001015560770481E+000
-5.8792490E-001	1.012508750514018E+000
-5.8681667E-001	1.023898141941535E+000
-5.8578146E-001	1.034998568395778E+000
-5.8489466E-001	1.046015001622290E+000
-5.8394915E-001	1.057078845798973E+000
-5.8285117E-001	1.068016158623829E+000
-5.8181518E-001	1.079633443169168E+000
-5.8087432E-001	1.090691363094031E+000
-5.7983947E-001	1.103236349484494E+000
-5.7858866E-001	1.116202510283227E+000
-5.7769239E-001	1.127823626277628E+000
-5.7663643E-001	1.138604746648556E+000
-5.7561356E-001	1.149708162507289E+000
-5.7465351E-001	1.160708878741223E+000
-5.7369423E-001	1.171727403546257E+000
-5.7270271E-001	1.182965874671935E+000
-5.7158315E-001	1.193920730302730E+000
-5.7063913E-001	1.205075990247412E+000
-5.6966108E-001	1.216062867117149E+000
-5.6866407E-001	1.226545131730816E+000
-5.6768191E-001	1.236962106578716E+000
-5.6665033E-001	1.247916440996859E+000
-5.6561369E-001	1.259141202464146E+000
-5.6455004E-001	1.270214214635534E+000
-5.6359541E-001	1.281053996610426E+000
-5.6261247E-001	1.291587629252007E+000
-5.6168443E-001	1.303049109410331E+000
-5.6064230E-001	1.313920101219857E+000
-5.5968261E-001	1.324752209087213E+000
-5.5873215E-001	1.335545185516290E+000
-5.5770111E-001	1.346534476787957E+000
-5.5671024E-001	1.357419823330863E+000
-5.5559087E-001	1.368315064350533E+000
-5.5461037E-001	1.378938459687765E+000
-5.5363292E-001	1.389768399298191E+000
-5.5261457E-001	1.400827092848175E+000
-5.5161369E-001	1.411744809261076E+000
-5.5066860E-001	1.422100057894428E+000
-5.4973733E-001	1.433074948386293E+000
-5.4863858E-001	1.443775571744744E+000
-5.4760981E-001	1.454274928404224E+000
-5.4661721E-001	1.465089055404389E+000
-5.4559249E-001	1.475927125386622E+000
-5.4467565E-001	1.486683657047926E+000
-5.4363745E-001	1.497182791098187E+000
-5.4265195E-001	1.507647096834795E+000
-5.4164070E-001	1.518275416145723E+000
-5.4063588E-001	1.528838120733987E+000
-5.3964520E-001	1.539691117488685E+000
-5.3866857E-001	1.550029882954227E+000
-5.3765976E-001	1.560636437760806E+000
-5.3663135E-001	1.571497658612557E+000
-5.3570390E-001	1.582004232539063E+000
-5.3467244E-001	1.592971564019338E+000
-5.3363037E-001	1.603514357573463E+000
-5.3264397E-001	1.614159660482848E+000
-5.3163934E-001	1.624828262278946E+000
-5.3063363E-001	1.635365029727977E+000
-5.2969497E-001	1.645546737368456E+000
-5.2863562E-001	1.656100877094469E+000
-5.2770007E-001	1.666627278206521E+000
-5.2666026E-001	1.677114138172731E+000
-5.2563447E-001	1.687615913818455E+000
-5.2467692E-001	1.697877572090544E+000
-5.2368367E-001	1.707990492935529E+000
-5.2268964E-001	1.719091629503479E+000
-5.2166593E-001	1.729137364912912E+000
-5.2069104E-001	1.739779599286899E+000
-5.1971394E-001	1.750088248368090E+000
-5.1868659E-001	1.760742102508186E+000
-5.1765674E-001	1.770735477407770E+000
-5.1662815E-001	1.781755995471794E+000
-5.1570046E-001	1.791799875321210E+000
-5.1469505E-001	1.802045178910099E+000
-5.1368058E-001	1.812787496299968E+000
-5.1274574E-001	1.823172738154732E+000
-5.1168561E-001	1.833848750701662E+000
-5.1075047E-001	1.843680864766895E+000
-5.0966126E-001	1.854139506816864E+000
-5.0869876E-001	1.864170032265292E+000
-5.0769711E-001	1.875091019327989E+000
-5.0664413E-001	1.885225287190189E+000
-5.0565845E-001	1.895447532238755E+000
-5.0469470E-001	1.905473585481998E+000
-5.0364041E-001	1.916256161475628E+000
-5.0262833E-001	1.926332550655488E+000
-5.0169528E-001	1.936400361359134E+000
-5.0068170E-001	1.946512248229103E+000
-4.9968553E-001	1.956644500408586E+000
-4.9865946E-001	1.966877039108013E+000
-4.9765527E-001	1.977439571309965E+000
-4.9659106E-001	1.987554236508934E+000
-4.9568775E-001	1.998040846100565E+000
-4.9460167E-001	2.008059207212032E+000
-4.9365565E-001	2.018539408674384E+000
-4.9269733E-001	2.028898187533560E+000
-4.9170402E-001	2.038739998583445E+000
-4.9067953E-001	2.048910910160664E+000
-4.8970813E-001	2.058631483603413E+000
-4.8873076E-001	2.068649929706687E+000
-4.8762554E-001	2.078924702685509E+000
-4.8665535E-001	2.088657597976709E+000
-4.8573005E-001	2.098752692617762E+000
-4.8465165E-001	2.108464942939816E+000
-4.8367667E-001	2.119378398414014E+000
-4.8263338E-001	2.129161055993151E+000
-4.8177996E-001	2.138851898648785E+000
-4.8063651E-001	2.148690729781430E+000
-4.7975063E-001	2.158934525869512E+000
-4.7868633E-001	2.168845490862090E+000
-4.7770104E-001	2.178817326823864E+000
-4.7667333E-001	2.188048886756107E+000
-4.7570249E-001	2.197842529181663E+000
-4.7473866E-001	2.207833107146950E+000
-4.7368327E-001	2.217794132177463E+000
-4.7266626E-001	2.227689907019695E+000
-4.7164398E-001	2.237792728951687E+000
-4.7075516E-001	2.247709811837588E+000
-4.6960571E-001	2.257286956807043E+000
-4.6865588E-001	2.266990478392007E+000
-4.6765807E-001	2.276988023961034E+000
-4.6671021E-001	2.286292852279004E+000
-4.6565515E-001	2.296163025829522E+000
-4.6464607E-001	2.305678532907258E+000
-4.6364260E-001	2.315021587682260E+000
-4.6271297E-001	2.324873366289658E+000
-4.6173885E-001	2.334609575845583E+000
-4.6070576E-001	2.344278560931326E+000
-4.5962569E-001	2.353614309871647E+000
-4.5860961E-001	2.363628214708079E+000
-4.5762700E-001	2.373529024299273E+000
-4.5670211E-001	2.383735675226758E+000
-4.5556068E-001	2.392871574671180E+000
-4.5473257E-001	2.402522053089669E+000
-4.5359388E-001	2.412264366116791E+000
-4.5267576E-001	2.421627594365013E+000
-4.5168057E-001	2.430811957248238E+000
-4.5070806E-001	2.440291576363407E+000
-4.4968727E-001	2.450096835416785E+000
-4.4869706E-001	2.459513186400638E+000
-4.4761863E-001	2.468910965378637E+000
-4.4668487E-001	2.478328635295227E+000
-4.4571266E-001	2.487587281051368E+000
-4.4466117E-001	2.497057596290553E+000
-4.4370463E-001	2.506853841797071E+000
-4.4259983E-001	2.516263545279337E+000
-4.4165465E-001	2.525678442860098E+000
-4.4068614E-001	2.534826962446417E+000
-4.3973571E-001	2.543952438290466E+000
-4.3871540E-001	2.553307233033372E+000
-4.3766794E-001	2.562818514036648E+000
-4.3672231E-001	2.572146116583419E+000
-4.3562067E-001	2.581611229865636E+000
-4.3469793E-001	2.590738725049572E+000
-4.3370727E-001	2.600160616139581E+000
-4.3263924E-001	2.608769454061985E+000
-4.3163502E-001	2.618391783021263E+000
-4.3069062E-001	2.627675830490055E+000
-4.2961496E-001	2.636562577000371E+000
-4.2869422E-001	2.645898331139832E+000
-4.2765468E-001	2.655174526351466E+000
-4.2675862E-001	2.664449736475952E+000
-4.2576975E-001	2.673019864809097E+000
-4.2467299E-001	2.682337685591641E+000
-4.2370570E-001	2.691499400745933E+000
-4.2279086E-001	2.700584215309696E+000
-4.2160162E-001	2.709363205841301E+000
-4.2070687E-001	2.718659192875574E+000
-4.1968301E-001	2.728094100234526E+000
-4.1868994E-001	2.737333240056465E+000
-4.1771820E-001	2.746049563917850E+000
-4.1669318E-001	2.755110513735522E+000
-4.1558927E-001	2.764266791443028E+000
-4.1464832E-001	2.773207107351880E+000
-4.1362578E-001	2.782297888885104E+000
-4.1271472E-001	2.790499612689025E+000
-4.1167784E-001	2.800047368363099E+000
-4.1066411E-001	2.808926984598514E+000
-4.0968001E-001	2.817669816039224E+000
-4.0864187E-001	2.825985397453664E+000
-4.0764683E-001	2.834903321545319E+000
-4.0668291E-001	2.844054289162166E+000
-4.0572983E-001	2.853478802023119E+000
-4.0470502E-001	2.861932238672654E+000
-4.0366691E-001	2.870770776989289E+000
-4.0266311E-001	2.879996158734542E+000
-4.0174329E-001	2.888477680926016E+000
-4.0063214E-001	2.897053857920341E+000
-3.9965492E-001	2.905284576117978E+000
-3.9873746E-001	2.914397247416770E+000
-3.9773682E-001	2.923159946170124E+000
-3.9668363E-001	2.931567702580391E+000
-3.9560238E-001	2.940301334502315E+000
-3.9473253E-001	2.948724399562231E+000
-3.9370179E-001	2.957418667773411E+000
-3.9271319E-001	2.966287996233831E+000
-3.9172599E-001	2.974371924168539E+000
-3.9074171E-001	2.982950168351323E+000
-3.8963866E-001	2.991291361870097E+000
-3.8867858E-001	2.999773376241890E+000
-3.8772592E-001	3.007625718359606E+000
-3.8668638E-001	3.016345462278814E+000
-3.8566956E-001	3.024767561367248E+000
-3.8461569E-001	3.033598065376282E+000
-3.8363430E-001	3.041935757607241E+000
-3.8261172E-001	3.050317600093493E+000
-3.8164741E-001	3.059039102108378E+000
-3.8065246E-001	3.066449718886716E+000
-3.7978834E-001	3.074200489178857E+000
-3.7875357E-001	3.082645485798508E+000
-3.7773407E-001	3.090919127570842E+000
-3.7673753E-001	3.099493452520282E+000
-3.7573707E-001	3.107809164457855E+000
-3.7466800E-001	3.116068282781015E+000
-3.7370834E-001	3.124053873121753E+000
-3.7270012E-001	3.132460371002281E+000
-3.7169564E-001	3.140572077146292E+000
-3.7064564E-001	3.148605507832997E+000
-3.6977860E-001	3.156473477947927E+000
-3.6869553E-001	3.164659187197685E+000
-3.6776918E-001	3.173040994339516E+000
-3.6670205E-001	3.180620155838231E+000
-3.6574659E-001	3.189013464031405E+000
-3.6466154E-001	3.197209322894064E+000
-3.6372703E-001	3.205032456500653E+000
-3.6268851E-001	3.212841302708345E+000
-3.6169595E-001	3.221147402569088E+000
-3.6075780E-001	3.229219120096460E+000
-3.5971302E-001	3.237466918097581E+000
-3.5870245E-001	3.245214067675469E+000
-3.5773101E-001	3.252855062906092E+000
-3.5667706E-001	3.260608951802627E+000
-3.5569978E-001	3.268176730032316E+000
-3.5469264E-001	3.276626010055253E+000
-3.5374036E-001	3.284453150298870E+000
-3.5271874E-001	3.292348252402405E+000
-3.5176703E-001	3.300631976867654E+000
-3.5070735E-001	3.308177500963225E+000
-3.4971973E-001	3.316097707660115E+000
-3.4866625E-001	3.323267999663614E+000
-3.4774563E-001	3.330114892787403E+000
-3.4673718E-001	3.337536447578017E+000
-3.4573373E-001	3.345709953115488E+000
-3.4468338E-001	3.353591851062241E+000
-3.4369314E-001	3.361867916252885E+000
-3.4270993E-001	3.368211476033977E+000
-3.4165883E-001	3.377148782213538E+000
-3.4077215E-001	3.384940044195574E+000
-3.3965042E-001	3.392495051795422E+000
-3.3869797E-001	3.399106389946411E+000
-3.3777985E-001	3.407315644401081E+000
-3.3670348E-001	3.414461624220348E+000
-3.3568534E-001	3.422031135470775E+000
-3.3468705E-001	3.429568801765100E+000
-3.3371261E-001	3.436655036353069E+000
-3.3262372E-001	3.444495132675890E+000
-3.3169794E-001	3.451452203922806E+000
-3.3069828E-001	3.459097511854473E+000
-3.2966706E-001	3.466543522146011E+000
-3.2865182E-001	3.473189492468478E+000
-3.2768822E-001	3.480122454082782E+000
-3.2674798E-001	3.487292163349977E+000
-3.2567698E-001	3.494307151547183E+000
-3.2468781E-001	3.501797468676457E+000
-3.2373914E-001	3.508593326917415E+000
-3.2270101E-001	3.515988460293528E+000
-3.2167989E-001	3.522689537380241E+000
-3.2066247E-001	3.530180411206356E+000
-3.1972507E-001	3.537159568181735E+000
-3.1868491E-001	3.544063651028992E+000
-3.1768990E-001	3.551238638383374E+000
-3.1676906E-001	3.558358119041827E+000
-3.1578940E-001	3.564993789332540E+000
-3.1473014E-001	3.572034510749354E+000
-3.1368348E-001	3.578252365743683E+000
-3.1275329E-001	3.585633385872498E+000
-3.1172574E-001	3.592434087837191E+000
-3.1074384E-001	3.598564028739929E+000
-3.0973941E-001	3.605650823857303E+000
-3.0867112E-001	3.612271175340382E+000
-3.0781859E-001	3.619617720699432E+000
-3.0676132E-001	3.626093411335226E+000
-3.0572662E-001	3.633081626009062E+000
-3.0476126E-001	3.639957893299155E+000
-3.0372536E-001	3.646525294140531E+000
-3.0264014E-001	3.653426343092207E+000
-3.0169585E-001	3.660281537679595E+000
-3.0065885E-001	3.665877997875221E+000
-2.9977134E-001	3.672774343578897E+000
-2.9870021E-001	3.679285851802092E+000
-2.9769522E-001	3.685115508459234E+000
-2.9674512E-001	3.692042272400002E+000
-2.9571447E-001	3.698085699867121E+000
-2.9470000E-001	3.705778807401664E+000
-2.9377133E-001	3.710441658342340E+000
-2.9261452E-001	3.718029673794007E+000
-2.9165617E-001	3.724055178739405E+000
-2.9068568E-001	3.730186800162002E+000
-2.8964967E-001	3.736820127387062E+000
-2.8871864E-001	3.743110997809318E+000
-2.8771442E-001	3.749202809400032E+000
-2.8670350E-001	3.755805585323543E+000
-2.8575414E-001	3.762790107616667E+000
-2.8478366E-001	3.768081461389855E+000
-2.8374884E-001	3.775663304274467E+000
-2.8274831E-001	3.780333365555173E+000
-2.8170529E-001	3.786290654429686E+000
-2.8064808E-001	3.792513022212674E+000
-2.7972975E-001	3.798235770176959E+000
-2.7873999E-001	3.804486756523445E+000
-2.7770048E-001	3.809897760938824E+000
-2.7671945E-001	3.815751045390417E+000
-2.7573493E-001	3.822153184700923E+000
-2.7469575E-001	3.828283805488990E+000
-2.7369937E-001	3.834363114502693E+000
-2.7271000E-001	3.839847592843897E+000
-2.7172869E-001	3.846101126922562E+000
-2.7073765E-001	3.852154189237837E+000
-2.6972347E-001	3.857918774088219E+000
-2.6870272E-001	3.863643712434261E+000
-2.6779059E-001	3.869046271399235E+000
-2.6669812E-001	3.875005818075593E+000
-2.6582217E-001	3.881025398708431E+000
-2.6478302E-001	3.886946555089054E+000
-2.6373938E-001	3.892060433824852E+000
-2.6269189E-001	3.897481074286972E+000
-2.6174471E-001	3.903974559020108E+000
-2.6070189E-001	3.909455093520656E+000
-2.5969288E-001	3.914432635056166E+000
-2.5869519E-001	3.919668986841472E+000
-2.5771895E-001	3.925819924584154E+000
-2.5677601E-001	3.931014356161999E+000
-2.5568339E-001	3.936691730110741E+000
-2.5467491E-001	3.942006714366116E+000
-2.5373474E-001	3.947241254659996E+000
-2.5271040E-001	3.952760504351723E+000
-2.5168669E-001	3.957609541990138E+000
-2.5071979E-001	3.963987744379061E+000
-2.4977565E-001	3.968121758765662E+000
-2.4866408E-001	3.973409828764417E+000
-2.4771990E-001	3.978253293056618E+000
-2.4673267E-001	3.982555845269459E+000
-2.4574500E-001	3.987571283623048E+000
-2.4478111E-001	3.992853698043245E+000
-2.4375080E-001	3.998856713926358E+000
-2.4277528E-001	4.003062650102954E+000
-2.4176039E-001	4.008654959775761E+000
-2.4074388E-001	4.013317647355571E+000
-2.3977949E-001	4.018613189419398E+000
-2.3871596E-001	4.023079322995955E+000
-2.3773272E-001	4.027981174764825E+000
-2.3671997E-001	4.032594647397637E+000
-2.3576398E-001	4.038376233092066E+000
-2.3475575E-001	4.042773258906823E+000
-2.3379269E-001	4.047963555272744E+000
-2.3276831E-001	4.052211172050903E+000
-2.3173845E-001	4.056804537221225E+000
-2.3070958E-001	4.062002974060235E+000
-2.2973809E-001	4.064420309883580E+000
-2.2868891E-001	4.070968625170216E+000
-2.2783747E-001	4.075990217030844E+000
-2.2673965E-001	4.079991216460854E+000
-2.2576430E-001	4.084848413312898E+000
-2.2481188E-001	4.088509701377305E+000
-2.2379005E-001	4.093686946012333E+000
-2.2275145E-001	4.098451643630312E+000
-2.2172883E-001	4.102352963120950E+000
-2.2077759E-001	4.107364272629781E+000
-2.1973267E-001	4.111305251717566E+000
-2.1876438E-001	4.115398521851382E+000
-2.1771619E-001	4.119782776192366E+000
-2.1675122E-001	4.124399171935184E+000
-2.1573178E-001	4.128828840649788E+000
-2.1471925E-001	4.133109095471891E+000
-2.1374220E-001	4.137050768291516E+000
-2.1272452E-001	4.141003034608005E+000
-2.1175411E-001	4.146302153666817E+000
-2.1069583E-001	4.149346706491940E+000
-2.0977150E-001	4.152893700456644E+000
-2.0875339E-001	4.157953167955085E+000
-2.0775531E-001	4.160878298459231E+000
-2.0678747E-001	4.165506676012100E+000
-2.0568855E-001	4.168963963786769E+000
-2.0475432E-001	4.172839616183904E+000
-2.0377527E-001	4.175831193481400E+000
-2.0276545E-001	4.181021541357026E+000
-2.0176695E-001	4.184294293876079E+000
-2.0070863E-001	4.188249147487412E+000
-1.9968812E-001	4.191861012467612E+000
-1.9876049E-001	4.195582772294685E+000
-1.9769500E-001	4.199634929361444E+000
-1.9677390E-001	4.203431660930324E+000
-1.9579303E-001	4.206841852377956E+000
-1.9479264E-001	4.211139282340142E+000
-1.9372797E-001	4.213466638216266E+000
-1.9276512E-001	4.218389399073743E+000
-1.9172898E-001	4.221292455380272E+000
-1.9076456E-001	4.224934459284505E+000
-1.8973127E-001	4.229140735886725E+000
-1.8868795E-001	4.231442298605103E+000
-1.8775128E-001	4.235344991087921E+000
-1.8679990E-001	4.238607871311693E+000
-1.8564375E-001	4.243095966857027E+000
-1.8478340E-001	4.246760018445841E+000
-1.8372212E-001	4.249187456788856E+000
-1.8272980E-001	4.251461093888395E+000
-1.8173447E-001	4.255494259021901E+000
-1.8075828E-001	4.258051815960151E+000
-1.7975132E-001	4.261269447668155E+000
-1.7876834E-001	4.265048181569128E+000
-1.7773087E-001	4.267421722663188E+000
-1.7669754E-001	4.271136920761194E+000
-1.7572790E-001	4.273604998434038E+000
-1.7478144E-001	4.276600448875762E+000
-1.7369486E-001	4.279923533951802E+000
-1.7275429E-001	4.283736138984011E+000
-1.7172043E-001	4.286257402004807E+000
-1.7075349E-001	4.289118797138894E+000
-1.6980106E-001	4.290618308164454E+000
-1.6872929E-001	4.294814085663914E+000
-1.6780238E-001	4.296979264528659E+000
-1.6673687E-001	4.299926337268623E+000
-1.6574134E-001	4.302722512879186E+000
-1.6477725E-001	4.305881050449850E+000
-1.6378935E-001	4.308459286888455E+000
-1.6273525E-001	4.311231039573407E+000
-1.6173978E-001	4.313968528200064E+000
-1.6075785E-001	4.316704303026221E+000
-1.5977983E-001	4.318832310481000E+000
-1.5873861E-001	4.321972725016082E+000
-1.5771616E-001	4.324421840685382E+000
-1.5676753E-001	4.326814736743465E+000
-1.5576605E-001	4.329362449270715E+000
-1.5480895E-001	4.331260776078267E+000
-1.5377732E-001	4.333794565106315E+000
-1.5271653E-001	4.337632618016659E+000
-1.5175007E-001	4.338166094488585E+000
-1.5075894E-001	4.340776022610822E+000
-1.4974292E-001	4.343359528316398E+000
-1.4879724E-001	4.345486172923337E+000
-1.4780295E-001	4.348218079535762E+000
-1.4671628E-001	4.350016469756753E+000
-1.4577062E-001	4.352629686395348E+000
-1.4488235E-001	4.354587986405903E+000
-1.4389732E-001	4.356301903724670E+000
-1.4276563E-001	4.359445092302774E+000
-1.4173275E-001	4.361028990221939E+000
-1.4082742E-001	4.363482146903337E+000
-1.3976319E-001	4.364808587012467E+000
-1.3872832E-001	4.368225704518920E+000
-1.3782454E-001	4.369109157058935E+000
-1.3683285E-001	4.370974434746650E+000
-1.3582706E-001	4.373473288578595E+000
-1.3483524E-001	4.374599059974699E+000
-1.3379009E-001	4.378483423480290E+000
-1.3275170E-001	4.379128820665812E+000
-1.3176981E-001	4.381398155733400E+000
-1.3079613E-001	4.383542447178449E+000
-1.2987670E-001	4.384860094260194E+000
-1.2884605E-001	4.386373045819799E+000
-1.2774935E-001	4.388426774629865E+000
-1.2675901E-001	4.389165714449987E+000
-1.2573223E-001	4.392536769862517E+000
-1.2474986E-001	4.393263657335879E+000
-1.2375513E-001	4.394825005239078E+000
-1.2273739E-001	4.396810692769520E+000
-1.2186386E-001	4.399193600372030E+000
-1.2082215E-001	4.400439347205690E+000
-1.1984674E-001	4.401341426151781E+000
-1.1873709E-001	4.403648722502908E+000
-1.1788478E-001	4.404526771554607E+000
-1.1684450E-001	4.407356261655156E+000
-1.1581060E-001	4.407576703363020E+000
-1.1484414E-001	4.409935408312343E+000
-1.1376356E-001	4.410600601522994E+000
-1.1282561E-001	4.412215597375145E+000
-1.1177529E-001	4.413790804368503E+000
-1.1074159E-001	4.414478937232957E+000
-1.0983758E-001	4.415373682926727E+000
-1.0878409E-001	4.417399056531778E+000
-1.0779471E-001	4.418621068199471E+000
-1.0677479E-001	4.420313389215451E+000
-1.0581070E-001	4.422045217068095E+000
-1.0477657E-001	4.422557237523613E+000
-1.0380721E-001	4.424156219684868E+000
-1.0275946E-001	4.424539515817610E+000
-1.0183565E-001	4.425780694241872E+000
-1.0075556E-001	4.427025381913737E+000
-9.9911861E-002	4.428372925078442E+000
-9.8836593E-002	4.430151349416505E+000
-9.7730272E-002	4.431157481916244E+000
-9.6788920E-002	4.432106950216829E+000
-9.5827967E-002	4.434748993979539E+000
-9.4837643E-002	4.433922655120270E+000
-9.3829736E-002	4.435560253483287E+000
-9.2792220E-002	4.435885472982022E+000
-9.1758087E-002	4.438301601968153E+000
-9.0796113E-002	4.439589379562250E+000
-8.9826897E-002	4.439856442588365E+000
-8.8761397E-002	4.441893151461425E+000
-8.7801717E-002	4.441837218624592E+000
-8.6799197E-002	4.442728970889695E+000
-8.5880265E-002	4.443748612207827E+000
-8.4772743E-002	4.444562017917654E+000
-8.3818167E-002	4.445437314885631E+000
-8.2796402E-002	4.445687303307497E+000
-8.1842192E-002	4.447864040732387E+000
-8.0798745E-002	4.447926623953713E+000
-7.9804257E-002	4.449182427785431E+000
-7.8823417E-002	4.450731350315941E+000
-7.7814117E-002	4.450975950669370E+000
-7.6786168E-002	4.452770245940601E+000
-7.5821824E-002	4.453412672435803E+000
-7.4858122E-002	4.453833202521011E+000
-7.3860981E-002	4.454479601387760E+000
-7.2811514E-002	4.456075114232533E+000
-7.1758099E-002	4.456240987888094E+000
-7.0750169E-002	4.457192901932070E+000
-6.9750942E-002	4.459203656624858E+000
-6.8815462E-002	4.459238011527951E+000
-6.7815796E-002	4.460228378184944E+000
-6.6862620E-002	4.460956184400430E+000
-6.5853313E-002	4.462696064953445E+000
-6.4785495E-002	4.463245414057274E+000
-6.3808411E-002	4.464933560402329E+000
-6.2786594E-002	4.465830012604044E+000
-6.1688669E-002	4.465790327411959E+000
-6.0746137E-002	4.466464479764308E+000
-5.9864111E-002	4.466675855495311E+000
-5.8785006E-002	4.468267337310728E+000
-5.7763834E-002	4.467863033215210E+000
-5.6785505E-002	4.470029259169536E+000
-5.5793144E-002	4.469811088382372E+000
-5.4757565E-002	4.471497652155392E+000
-5.3838205E-002	4.471776990978819E+000
-5.2824039E-002	4.472723601585386E+000
-5.1884085E-002	4.473830788223836E+000
-5.0835539E-002	4.474270981770985E+000
-4.9885634E-002	4.475030556225164E+000
-4.8799545E-002	4.475224562265247E+000
-4.7912847E-002	4.476289872218075E+000
-4.6889964E-002	4.477123363414456E+000
-4.5857970E-002	4.477598257086903E+000
-4.4753131E-002	4.477448416924634E+000
-4.3776996E-002	4.479319640331788E+000
-4.2800579E-002	4.480040511599277E+000
-4.1767228E-002	4.481417692022948E+000
-4.0778998E-002	4.481167761264022E+000
-3.9896764E-002	4.481692739106975E+000
-3.8845554E-002	4.482551081650346E+000
-3.7767008E-002	4.483132233774214E+000
-3.6845949E-002	4.484359272100320E+000
-3.5844862E-002	4.484645689475713E+000
-3.4757130E-002	4.485271534434077E+000
-3.3734038E-002	4.485579569030705E+000
-3.2796189E-002	4.486170607814302E+000
-3.1833168E-002	4.487326030929886E+000
-3.0831287E-002	4.491074027286647E+000
-2.9798808E-002	4.489999281164747E+000
-2.8811622E-002	4.490022544507632E+000
-2.7811017E-002	4.490740185534513E+000
-2.6853511E-002	4.490121999265341E+000
-2.5805349E-002	4.491350150770602E+000
-2.4825748E-002	4.492077713211380E+000
-2.3791075E-002	4.492701940383974E+000
-2.2842782E-002	4.493999889603359E+000
-2.1802930E-002	4.493911137183503E+000
-2.0883081E-002	4.495080813987244E+000
-1.9797480E-002	4.495759074334750E+000
-1.8775234E-002	4.496226747278829E+000
-1.7856892E-002	4.495775101058342E+000
-1.6852727E-002	4.497959542053721E+000
-1.5777666E-002	4.497402765132748E+000
-1.4781913E-002	4.499234541593125E+000
-1.3720666E-002	4.499219255314912E+000
-1.2838426E-002	4.499680188518980E+000
-1.1814107E-002	4.500117704302589E+000
-1.0803277E-002	4.500969398904719E+000
-9.8024597E-003	4.500281225751941E+000
-8.7720705E-003	4.500994768684990E+000
-7.8742215E-003	4.502796772453522E+000
-6.8655554E-003	4.502344080143502E+000
-5.8158957E-003	4.504057937932824E+000
-4.8437691E-003	4.503103382609510E+000
-3.8692555E-003	4.504876958551222E+000
-2.8309720E-003	4.503546850192279E+000
-1.8154378E-003	4.504731341644586E+000
-7.7240722E-004	4.505905592331199E+000
2.7240335E-004	4.507868202830963E+000
1.2169232E-003	4.507424007963266E+000
2.2359828E-003	4.510578713483305E+000
3.1973170E-003	4.510424662248539E+000
4.1580684E-003	4.509587716173236E+000
5.1535824E-003	4.510015040636059E+000
6.2004337E-003	4.510477065395536E+000
6.6248993E-003	4.510877013206468E+000
6.7929043E-003	4.511789441108704E+000