EC-Lab ASCII FILE
Nb header lines : 63                          

Linear Sweep Voltammetry

Run on channel : 6 (SN 13765)
User : 
Electrode connection : standard
Potential control : Ewe
Ewe ctrl range : min = -2.50 V, max = 2.50 V
Ewe,I filtering : <None>
Safety Limits :
	Do not start on E overload
Channel : Floating
Acquisition started on : 07/13/2026 15:28:07.379
Technique started on : 07/13/2026 15:28:08.376
Loaded Setting File :  C:\Users\EEM-620\Desktop\Wade\20260630\LSV 1mg MoS2 1_C06.mpr
Saved on :
	File : N719_0713-d-2_C06.mpr
	Directory : C:\Users\EEM-620\Desktop\Wade\abao\20260713\
	Host : 192.109.209.200
Device : VSP-300 (SN 0025)
Address : 192.109.209.129
EC-LAB for windows v11.62 (software)
Internet server v27.00 (firmware)
Command interpretor v12.02 (firmware)
Electrode material : Au/Pd
Initial state : 
Electrolyte : NaCl (0.2M)
Comments : Fe(CN)63-/Fe(CN)64- 5.10-3 M
Cable : ULC
Reference electrode : SCE Saturated Calomel Electrode (0.241 V)
Electrode surface area : 0.001 cm2
Characteristic mass : 0.001 g
Equivalent Weight : 0.000 g/eq.
Density : 0.000 g/cm3
Volume (V) : 0.001 cm3
Cycle Definition : Charge/Discharge alternance
tR (h:m:s)          0:00:5.0000         
dER/dt (mV/h)       0.0                 
dER (mV)            0                   
dtR (s)             0.0500              
dE/dt               10.000              
dE/dt unit          mV/s                
Ei (V)              -0.800              
vs.                 Ref                 
EL (V)              0.010               
vs.                 Ref                 
record              <I>                 
dI                  0.000               
unit dI             uA                  
tI (s)              0.0000              
step percent        50                  
N                   10                  
E range min (V)     -2.500              
E range max (V)     2.500               
I Range             Auto                
I Range min         Unset               
I Range max         Unset               
I Range init        Unset               
Bandwidth           8                   

Ewe/V	<I>/mA	
-4.1684288E-001	0.000000000000000E+000
-4.1725141E-001	0.000000000000000E+000
-4.1691160E-001	0.000000000000000E+000
-4.1667104E-001	0.000000000000000E+000
-4.1673213E-001	0.000000000000000E+000
-4.1659084E-001	0.000000000000000E+000
-4.1698796E-001	0.000000000000000E+000
-4.1704524E-001	0.000000000000000E+000
-4.1665962E-001	0.000000000000000E+000
-4.1706049E-001	0.000000000000000E+000
-4.1695359E-001	0.000000000000000E+000
-4.1703761E-001	0.000000000000000E+000
-4.1700324E-001	0.000000000000000E+000
-4.1714451E-001	0.000000000000000E+000
-4.1704524E-001	0.000000000000000E+000
-4.1680849E-001	0.000000000000000E+000
-4.1693833E-001	0.000000000000000E+000
-4.1724759E-001	0.000000000000000E+000
-4.1691160E-001	0.000000000000000E+000
-4.1694215E-001	0.000000000000000E+000
-4.1677797E-001	0.000000000000000E+000
-4.1704524E-001	0.000000000000000E+000
-4.1662523E-001	0.000000000000000E+000
-4.1710633E-001	0.000000000000000E+000
-4.1693068E-001	0.000000000000000E+000
-4.1694978E-001	0.000000000000000E+000
-4.1670921E-001	0.000000000000000E+000
-4.1741943E-001	0.000000000000000E+000
-4.1712925E-001	0.000000000000000E+000
-4.1679323E-001	0.000000000000000E+000
-4.1712543E-001	0.000000000000000E+000
-4.1684669E-001	0.000000000000000E+000
-4.1719416E-001	0.000000000000000E+000
-4.1702613E-001	0.000000000000000E+000
-4.1692308E-001	0.000000000000000E+000
-4.1683143E-001	0.000000000000000E+000
-4.1705287E-001	0.000000000000000E+000
-4.1702616E-001	0.000000000000000E+000
-4.1735452E-001	0.000000000000000E+000
-4.1720945E-001	0.000000000000000E+000
-4.1709870E-001	0.000000000000000E+000
-4.1685051E-001	0.000000000000000E+000
-4.1735834E-001	0.000000000000000E+000
-4.1712162E-001	0.000000000000000E+000
-4.1709489E-001	0.000000000000000E+000
-4.1712159E-001	0.000000000000000E+000
-4.1732016E-001	0.000000000000000E+000
-4.1760653E-001	0.000000000000000E+000
-4.1704142E-001	0.000000000000000E+000
-4.1698796E-001	0.000000000000000E+000
-4.1694596E-001	0.000000000000000E+000
-4.1721705E-001	0.000000000000000E+000
-4.1699943E-001	0.000000000000000E+000
-4.1700324E-001	0.000000000000000E+000
-4.1770580E-001	0.000000000000000E+000
-4.1713306E-001	0.000000000000000E+000
-4.1696504E-001	0.000000000000000E+000
-4.1722852E-001	0.000000000000000E+000
-4.1733545E-001	0.000000000000000E+000
-4.1724762E-001	0.000000000000000E+000
-4.1699180E-001	0.000000000000000E+000
-4.2266577E-001	0.000000000000000E+000
-4.2214265E-001	0.000000000000000E+000
-7.8932500E-001	-3.111405294874444E+000
-7.8873062E-001	-3.092639758012240E+000
-7.8770310E-001	-3.067352358389797E+000
-7.8668475E-001	-3.046964669393168E+000
-7.8573662E-001	-3.028933648346978E+000
-7.8478330E-001	-3.012459476788838E+000
-7.8374255E-001	-2.997711285948753E+000
-7.8276849E-001	-2.984100324520163E+000
-7.8175032E-001	-2.970919468888532E+000
-7.8073794E-001	-2.958556274573013E+000
-7.7968460E-001	-2.946226810617111E+000
-7.7870303E-001	-2.934600748673631E+000
-7.7775550E-001	-2.923631307979434E+000
-7.7674288E-001	-2.912417312038421E+000
-7.7574402E-001	-2.901512007194540E+000
-7.7484697E-001	-2.890953009327255E+000
-7.7382201E-001	-2.880590089653658E+000
-7.7277809E-001	-2.870205563803509E+000
-7.7174270E-001	-2.859668376821048E+000
-7.7082771E-001	-2.849753429376403E+000
-7.6982194E-001	-2.839350219953942E+000
-7.6887894E-001	-2.829463491009343E+000
-7.6777846E-001	-2.818962492037443E+000
-7.6680636E-001	-2.809368572853227E+000
-7.6579320E-001	-2.799213313946026E+000
-7.6479948E-001	-2.789047583653399E+000
-7.6378798E-001	-2.779286666876747E+000
-7.6286519E-001	-2.769818513205760E+000
-7.6179409E-001	-2.759712383606974E+000
-7.6080245E-001	-2.749973512634075E+000
-7.5985765E-001	-2.740283801047894E+000
-7.5883716E-001	-2.730533870629927E+000
-7.5779349E-001	-2.720728159778647E+000
-7.5680447E-001	-2.710813299097397E+000
-7.5587529E-001	-2.701203564646836E+000
-7.5482792E-001	-2.691337027759474E+000
-7.5375611E-001	-2.681658424760975E+000
-7.5281101E-001	-2.672099089180975E+000
-7.5184286E-001	-2.662107878261125E+000
-7.5078088E-001	-2.652401264497307E+000
-7.4985182E-001	-2.642912404680699E+000
-7.4881619E-001	-2.633129325177936E+000
-7.4778014E-001	-2.623316977078700E+000
-7.4678820E-001	-2.613612458385802E+000
-7.4578595E-001	-2.604146734155993E+000
-7.4481970E-001	-2.594533602190793E+000
-7.4384648E-001	-2.585174374282360E+000
-7.4275380E-001	-2.575503161384010E+000
-7.4179137E-001	-2.566081256664686E+000
-7.4082386E-001	-2.556307730023512E+000
-7.3986357E-001	-2.547000122291077E+000
-7.3886889E-001	-2.537434553950737E+000
-7.3782462E-001	-2.528295218392657E+000
-7.3680514E-001	-2.518725431627690E+000
-7.3576802E-001	-2.509391776617848E+000
-7.3482299E-001	-2.499959444006278E+000
-7.3382580E-001	-2.490337587893016E+000
-7.3272067E-001	-2.480918679413179E+000
-7.3177034E-001	-2.471400000154958E+000
-7.3082435E-001	-2.461829843620457E+000
-7.2982824E-001	-2.451989660086617E+000
-7.2873944E-001	-2.442776601347653E+000
-7.2781664E-001	-2.433053510608486E+000
-7.2680664E-001	-2.423885603888143E+000
-7.2590435E-001	-2.414470386449942E+000
-7.2488797E-001	-2.405204081149023E+000
-7.2378027E-001	-2.395782299390504E+000
-7.2283882E-001	-2.386564240411469E+000
-7.2186482E-001	-2.377367021860897E+000
-7.2083420E-001	-2.368200280159229E+000
-7.1984768E-001	-2.358677184416187E+000
-7.1888441E-001	-2.349340932788669E+000
-7.1788204E-001	-2.339682862120267E+000
-7.1685219E-001	-2.330953364846879E+000
-7.1587223E-001	-2.321233468199218E+000
-7.1483380E-001	-2.312591727127653E+000
-7.1382248E-001	-2.303042692442727E+000
-7.1280414E-001	-2.293828540654097E+000
-7.1184355E-001	-2.284439307553313E+000
-7.1086413E-001	-2.275540293642763E+000
-7.0980346E-001	-2.266118014300307E+000
-7.0887327E-001	-2.256928885279539E+000
-7.0783442E-001	-2.247830566708686E+000
-7.0686167E-001	-2.238708206348949E+000
-7.0585495E-001	-2.229340047633107E+000
-7.0487571E-001	-2.220459768341655E+000
-7.0381767E-001	-2.211417252266852E+000
-7.0283091E-001	-2.202307054698856E+000
-7.0188731E-001	-2.193294024301903E+000
-7.0081723E-001	-2.184263955111863E+000
-6.9985372E-001	-2.175175743165688E+000
-6.9885385E-001	-2.165946165720626E+000
-6.9779253E-001	-2.156929226937121E+000
-6.9688952E-001	-2.147722975931291E+000
-6.9581747E-001	-2.138741948262407E+000
-6.9478416E-001	-2.129857984957876E+000
-6.9386095E-001	-2.120991236405763E+000
-6.9284070E-001	-2.111915563267685E+000
-6.9191176E-001	-2.103120140455392E+000
-6.9087696E-001	-2.094050646548116E+000
-6.8983668E-001	-2.084959192408448E+000
-6.8883455E-001	-2.076116080077254E+000
-6.8779182E-001	-2.067182754200921E+000
-6.8685502E-001	-2.058299744294743E+000
-6.8587494E-001	-2.049398377839768E+000
-6.8483943E-001	-2.040665618247454E+000
-6.8385667E-001	-2.031739252860904E+000
-6.8288487E-001	-2.022756021041410E+000
-6.8178666E-001	-2.013668600331862E+000
-6.8080223E-001	-2.004863998956161E+000
-6.7982656E-001	-1.996070717143443E+000
-6.7881733E-001	-1.987421842912820E+000
-6.7784327E-001	-1.978863618991983E+000
-6.7683017E-001	-1.970264116532221E+000
-6.7582297E-001	-1.961267298570373E+000
-6.7487854E-001	-1.952318758600285E+000
-6.7389178E-001	-1.943833645670423E+000
-6.7286074E-001	-1.934936978474807E+000
-6.7189449E-001	-1.926241140674655E+000
-6.7084658E-001	-1.917652687483823E+000
-6.6980505E-001	-1.908978489538038E+000
-6.6887003E-001	-1.900116816714954E+000
-6.6783243E-001	-1.891694202525417E+000
-6.6692144E-001	-1.882706296940639E+000
-6.6588390E-001	-1.874592116033590E+000
-6.6481698E-001	-1.865730529214125E+000
-6.6389227E-001	-1.857097943347913E+000
-6.6280597E-001	-1.848407075085031E+000
-6.6194826E-001	-1.840026191661487E+000
-6.6078782E-001	-1.831589182217918E+000
-6.5983909E-001	-1.822634671849228E+000
-6.5888155E-001	-1.814099841207259E+000
-6.5793574E-001	-1.805782690368314E+000
-6.5689564E-001	-1.797166993496589E+000
-6.5582079E-001	-1.788759736650897E+000
-6.5480578E-001	-1.779975733547296E+000
-6.5371948E-001	-1.771547274733027E+000
-6.5284026E-001	-1.762943458472094E+000
-6.5178657E-001	-1.754963720562284E+000
-6.5078974E-001	-1.746099391469244E+000
-6.4978218E-001	-1.737702987316885E+000
-6.4885139E-001	-1.729257418601605E+000
-6.4782214E-001	-1.720367076496282E+000
-6.4684331E-001	-1.712542866742620E+000
-6.4585704E-001	-1.704245138223527E+000
-6.4485997E-001	-1.695715198914207E+000
-6.4377719E-001	-1.687529279669249E+000
-6.4291525E-001	-1.679516515246142E+000
-6.4179790E-001	-1.671030561681143E+000
-6.4090854E-001	-1.662525843799937E+000
-6.3981158E-001	-1.654240672235140E+000
-6.3881838E-001	-1.645631696614956E+000
-6.3789570E-001	-1.637363081046008E+000
-6.3680404E-001	-1.629388771399313E+000
-6.3582170E-001	-1.620969594352779E+000
-6.3482648E-001	-1.612167423350343E+000
-6.3386774E-001	-1.604390197605998E+000
-6.3289732E-001	-1.596317621568836E+000
-6.3185978E-001	-1.587976364929951E+000
-6.3081330E-001	-1.579400666058062E+000
-6.2984389E-001	-1.571112193443163E+000
-6.2890565E-001	-1.563294874027294E+000
-6.2789828E-001	-1.554657666219605E+000
-6.2683493E-001	-1.547011809768502E+000
-6.2593949E-001	-1.538227818024474E+000
-6.2485164E-001	-1.530371864222818E+000
-6.2388927E-001	-1.522312563505622E+000
-6.2286788E-001	-1.514008850135182E+000
-6.2191463E-001	-1.506059120512667E+000
-6.2094480E-001	-1.497689221214118E+000
-6.1980289E-001	-1.489798518518604E+000
-6.1893171E-001	-1.481391749034326E+000
-6.1781675E-001	-1.473551551238824E+000
-6.1688566E-001	-1.465592237672322E+000
-6.1585456E-001	-1.457103924342888E+000
-6.1489654E-001	-1.449121401742246E+000
-6.1386031E-001	-1.441102684371998E+000
-6.1286336E-001	-1.433206142926654E+000
-6.1187696E-001	-1.425060384753008E+000
-6.1082351E-001	-1.417210782567658E+000
-6.0989678E-001	-1.408976850548264E+000
-6.0897696E-001	-1.401213593983730E+000
-6.0786074E-001	-1.393457109177550E+000
-6.0685122E-001	-1.385580808614140E+000
-6.0584879E-001	-1.377258525977281E+000
-6.0486674E-001	-1.369745843940307E+000
-6.0387999E-001	-1.362000451595698E+000
-6.0294145E-001	-1.353884361301468E+000
-6.0185814E-001	-1.346001942124630E+000
-6.0084736E-001	-1.338257549951476E+000
-5.9985548E-001	-1.329981713623718E+000
-5.9891552E-001	-1.322256906165013E+000
-5.9792936E-001	-1.314351318611036E+000
-5.9686416E-001	-1.306640376865190E+000
-5.9583229E-001	-1.298701881120603E+000
-5.9487915E-001	-1.290987262709275E+000
-5.9391004E-001	-1.283272530079236E+000
-5.9290934E-001	-1.275676932599808E+000
-5.9186530E-001	-1.267843088756006E+000
-5.9088695E-001	-1.260247970437776E+000
-5.8991355E-001	-1.252320314723033E+000
-5.8886683E-001	-1.244576971702006E+000
-5.8788037E-001	-1.236525377783465E+000
-5.8691037E-001	-1.228648172622478E+000
-5.8585548E-001	-1.221186123374434E+000
-5.8498448E-001	-1.213424098251755E+000
-5.8386129E-001	-1.205627189190300E+000
-5.8288026E-001	-1.197755614226615E+000
-5.8186966E-001	-1.189850429070990E+000
-5.8085495E-001	-1.182819495046582E+000
-5.7992530E-001	-1.174686066944287E+000
-5.7889956E-001	-1.167325360359062E+000
-5.7794100E-001	-1.159431472006768E+000
-5.7687658E-001	-1.151696096139927E+000
-5.7586867E-001	-1.143797284056201E+000
-5.7486266E-001	-1.136052039348414E+000
-5.7392675E-001	-1.128833437821378E+000
-5.7290834E-001	-1.121275442675522E+000
-5.7195646E-001	-1.113681096721580E+000
-5.7085019E-001	-1.106181952964373E+000
-5.6988817E-001	-1.100545321221773E+000
-5.6893259E-001	-1.092739311495308E+000
-5.6786859E-001	-1.085446337720857E+000
-5.6691390E-001	-1.077177246563870E+000
-5.6585532E-001	-1.069774186583583E+000
-5.6494313E-001	-1.062207591064552E+000
-5.6392807E-001	-1.054130892660741E+000
-5.6285793E-001	-1.046246040060568E+000
-5.6190675E-001	-1.038613999611826E+000
-5.6092548E-001	-1.031295747944599E+000
-5.5992079E-001	-1.023598943733504E+000
-5.5888134E-001	-1.015452406250976E+000
-5.5787736E-001	-1.008575890351223E+000
-5.5691051E-001	-1.000651370320059E+000
-5.5588382E-001	-9.931337203625921E-001
-5.5481625E-001	-9.855117937205016E-001
-5.5392271E-001	-9.781932746646564E-001
-5.5291080E-001	-9.699449090190955E-001
-5.5193740E-001	-9.637548219826462E-001
-5.5084217E-001	-9.560276592771189E-001
-5.4994512E-001	-9.487420179045793E-001
-5.4893261E-001	-9.408428943543470E-001
-5.4791856E-001	-9.337839006825703E-001
-5.4685581E-001	-9.261799495853453E-001
-5.4588073E-001	-9.187353461704841E-001
-5.4488033E-001	-9.112226060695132E-001
-5.4389811E-001	-9.041072535320893E-001
-5.4289675E-001	-8.966958351709220E-001
-5.4193389E-001	-8.891200721263886E-001
-5.4095179E-001	-8.818656653117714E-001
-5.3987306E-001	-8.744243794569240E-001
-5.3888416E-001	-8.671020026560221E-001
-5.3791147E-001	-8.599343490905156E-001
-5.3688949E-001	-8.524831908720572E-001
-5.3590465E-001	-8.449444314120020E-001
-5.3488076E-001	-8.379680891914916E-001
-5.3389937E-001	-8.304018874963122E-001
-5.3295493E-001	-8.232856036888236E-001
-5.3197914E-001	-8.154947482313268E-001
-5.3086001E-001	-8.078664174234440E-001
-5.2993864E-001	-8.015424395325041E-001
-5.2891117E-001	-7.940586164799566E-001
-5.2796865E-001	-7.871846300032423E-001
-5.2697843E-001	-7.799119439527935E-001
-5.2585357E-001	-7.727159822832201E-001
-5.2493417E-001	-7.656169934543176E-001
-5.2383453E-001	-7.584136429208321E-001
-5.2286148E-001	-7.513771747398845E-001
-5.2191371E-001	-7.446085893445540E-001
-5.2088827E-001	-7.374423340100904E-001
-5.1989877E-001	-7.301925829861258E-001
-5.1887685E-001	-7.233871470584887E-001
-5.1797789E-001	-7.165365834478998E-001
-5.1687574E-001	-7.091471767965984E-001
-5.1593685E-001	-7.018742849015513E-001
-5.1498181E-001	-6.947600219950645E-001
-5.1389050E-001	-6.873165816698732E-001
-5.1297975E-001	-6.801785085764180E-001
-5.1186901E-001	-6.737800646159400E-001
-5.1096106E-001	-6.666126675958637E-001
-5.0986552E-001	-6.592428134409376E-001
-5.0887847E-001	-6.530945959880397E-001
-5.0781810E-001	-6.455878783183948E-001
-5.0691646E-001	-6.385878225167581E-001
-5.0590807E-001	-6.312373805515161E-001
-5.0488317E-001	-6.243902610257237E-001
-5.0386971E-001	-6.175448788950817E-001
-5.0287884E-001	-6.100177963574787E-001
-5.0188971E-001	-6.026165346763186E-001
-5.0085241E-001	-5.964541322793107E-001
-4.9978268E-001	-5.888078213427855E-001
-4.9888366E-001	-5.816804607355301E-001
-4.9795434E-001	-5.746474674454447E-001
-4.9688455E-001	-5.677852000765222E-001
-4.9588734E-001	-5.610242430180699E-001
-4.9497142E-001	-5.540422185979498E-001
-4.9388140E-001	-5.467913602320502E-001
-4.9293053E-001	-5.402557916111408E-001
-4.9185118E-001	-5.327637867519144E-001
-4.9083745E-001	-5.256741578461295E-001
-4.8987547E-001	-5.189819474601114E-001
-4.8889756E-001	-5.119166984050360E-001
-4.8792619E-001	-5.048343469145733E-001
-4.8695508E-001	-4.977622197733975E-001
-4.8591313E-001	-4.912397074340680E-001
-4.8488194E-001	-4.842808379376748E-001
-4.8395011E-001	-4.776955986464477E-001
-4.8290643E-001	-4.707721552501125E-001
-4.8186415E-001	-4.636627764589174E-001
-4.8080868E-001	-4.565226237669036E-001
-4.7980836E-001	-4.488642678755994E-001
-4.7850281E-001	-4.425432188943521E-001
-4.7754580E-001	-4.352442388319302E-001
-4.7654071E-001	-4.285411015842806E-001
-4.7554773E-001	-4.212964301323643E-001
-4.7459444E-001	-4.153652060776984E-001
-4.7374976E-001	-4.081293465914566E-001
-4.7262141E-001	-4.012870367458046E-001
-4.7165710E-001	-3.941129908931487E-001
-4.7058079E-001	-3.879980251400017E-001
-4.6964085E-001	-3.810996163271132E-001
-4.6853697E-001	-3.744686710544762E-001
-4.6758851E-001	-3.672351306649269E-001
-4.6662527E-001	-3.604925421303538E-001
-4.6561190E-001	-3.533708579079420E-001
-4.6458119E-001	-3.469621503932605E-001
-4.6361402E-001	-3.401613248796713E-001
-4.6263239E-001	-3.336439960877651E-001
-4.6161240E-001	-3.267088163023186E-001
-4.6060300E-001	-3.199545733813666E-001
-4.5946890E-001	-3.134300345210002E-001
-4.5863250E-001	-3.071864191097786E-001
-4.5758203E-001	-2.996980171681436E-001
-4.5660982E-001	-2.930834200578145E-001
-4.5558760E-001	-2.867055626379127E-001
-4.5458508E-001	-2.801534565669537E-001
-4.5357451E-001	-2.734818517885831E-001
-4.5262823E-001	-2.664540355542186E-001
-4.5168105E-001	-2.599044168119038E-001
-4.5064041E-001	-2.532371775143680E-001
-4.4966474E-001	-2.462531498990055E-001
-4.4863388E-001	-2.398979027790049E-001
-4.4774842E-001	-2.326665599657973E-001
-4.4657272E-001	-2.265427924969439E-001
-4.4569823E-001	-2.198725029550219E-001
-4.4462460E-001	-2.128784703780653E-001
-4.4361141E-001	-2.063895394112780E-001
-4.4271085E-001	-2.000169082441259E-001
-4.4159442E-001	-1.927830779718018E-001
-4.4060898E-001	-1.866920121049704E-001
-4.3957114E-001	-1.805270935098333E-001
-4.3858224E-001	-1.739162897035746E-001
-4.3771073E-001	-1.667550516140055E-001
-4.3665275E-001	-1.604534195632574E-001
-4.3557531E-001	-1.539677959280432E-001
-4.3463454E-001	-1.477920130226607E-001
-4.3369883E-001	-1.407048681198997E-001
-4.3263605E-001	-1.345743659918230E-001
-4.3156201E-001	-1.276119506341409E-001
-4.3056655E-001	-1.216610347231228E-001
-4.2967322E-001	-1.147887480134765E-001
-4.2859674E-001	-1.085964111287909E-001
-4.2761835E-001	-1.020775654318705E-001
-4.2669731E-001	-9.487949053894873E-002
-4.2566594E-001	-8.855568397945501E-002
-4.2458206E-001	-8.212501033105779E-002
-4.2358714E-001	-7.535287875820096E-002
-4.2255446E-001	-6.873956228341294E-002
-4.2156279E-001	-6.220891264577694E-002
-4.2073080E-001	-5.611279861208196E-002
-4.1960233E-001	-4.917859955992493E-002
-4.1847318E-001	-4.238899935282692E-002
-4.1733745E-001	-3.489460689188162E-002
-4.1634515E-001	-2.845071075442866E-002
-4.1531461E-001	-2.142873441550397E-002
-4.1439185E-001	-1.604339088899664E-002
-4.1333470E-001	-9.166551897360195E-003
-4.1229919E-001	-2.683961313365488E-003
-4.1136220E-001	3.920238817011486E-003
-4.1037077E-001	1.025418949967673E-002
-4.0928972E-001	1.588072311521199E-002
-4.0833813E-001	2.242362487164355E-002
-4.0732861E-001	2.881733921709684E-002
-4.0625632E-001	3.484200944917060E-002
-4.0530831E-001	4.220198214709481E-002
-4.0432066E-001	4.812360491533130E-002
-4.0326235E-001	5.465837371432136E-002
-4.0225750E-001	6.125481245625353E-002
-4.0132329E-001	6.689796101222445E-002
-4.0037742E-001	7.327008452611383E-002
-3.9935553E-001	7.971213757120033E-002
-3.9831495E-001	8.590430737024646E-002
-3.9713970E-001	9.298584118692421E-002
-3.9616916E-001	9.896252548288365E-002
-3.9514762E-001	1.056320995816751E-001
-3.9412746E-001	1.122754183856562E-001
-3.9299405E-001	1.201610786728106E-001
-3.9205056E-001	1.264400149488614E-001
-3.9090338E-001	1.320254076099782E-001
-3.9005989E-001	1.387126841600237E-001
-3.8893798E-001	1.449196141868545E-001
-3.8800466E-001	1.512834609624139E-001
-3.8692236E-001	1.578128809962585E-001
-3.8601193E-001	1.642390006842716E-001
-3.8503593E-001	1.700653681635025E-001
-3.8396743E-001	1.767992301592778E-001
-3.8300329E-001	1.828761478644552E-001
-3.8205785E-001	1.893149804565368E-001
-3.8109145E-001	1.951692406708753E-001
-3.8001105E-001	2.013816279186691E-001
-3.7905926E-001	2.072460470997080E-001
-3.7801248E-001	2.139796289307774E-001
-3.7704295E-001	2.205972025101928E-001
-3.7597173E-001	2.262890881134401E-001
-3.7491891E-001	2.322533871982858E-001
-3.7403670E-001	2.388107860805819E-001
-3.7287849E-001	2.450387812116084E-001
-3.7202045E-001	2.513500760389936E-001
-3.7103507E-001	2.575527785897815E-001
-3.7003237E-001	2.633854368080693E-001
-3.6907947E-001	2.695678467981500E-001
-3.6803520E-001	2.759629431077175E-001
-3.6700955E-001	2.819918336829645E-001
-3.6606866E-001	2.885749034281998E-001
-3.6498460E-001	2.941995605964363E-001
-3.6404637E-001	3.001310780506437E-001
-3.6302081E-001	3.068184320319221E-001
-3.6206335E-001	3.124925748410599E-001
-3.6094353E-001	3.179030392180986E-001
-3.6006850E-001	3.242344529159698E-001
-3.5892600E-001	3.309910684410085E-001
-3.5807431E-001	3.364499574182198E-001
-3.5697249E-001	3.430587346943016E-001
-3.5601673E-001	3.490946275630485E-001
-3.5498679E-001	3.555449775109687E-001
-3.5395542E-001	3.608183930125599E-001
-3.5312456E-001	3.672076626853249E-001
-3.5202128E-001	3.728124483321272E-001
-3.5104719E-001	3.793237260370343E-001
-3.4994647E-001	3.854082064634117E-001
-3.4906241E-001	3.915346310870511E-001
-3.4805617E-001	3.976855798176038E-001
-3.4709546E-001	4.034409767913600E-001
-3.4597111E-001	4.093401258636584E-001
-3.4510338E-001	4.155566891034450E-001
-3.4405568E-001	4.211573780134881E-001
-3.4296730E-001	4.283326029505647E-001
-3.4191042E-001	4.328416598339878E-001
-3.4100950E-001	4.393398069811099E-001
-3.3992150E-001	4.459404381560379E-001
-3.3918673E-001	4.515609441807978E-001
-3.3800709E-001	4.570990095122003E-001
-3.3694112E-001	4.632931231088460E-001
-3.3585247E-001	4.688348169266090E-001
-3.3501652E-001	4.756064416357775E-001
-3.3416042E-001	4.810857570021803E-001
-3.3292684E-001	4.871294027953246E-001
-3.3186895E-001	4.929090869371535E-001
-3.3093640E-001	4.991457164871980E-001
-3.3004865E-001	5.050507639707220E-001
-3.2909560E-001	5.109422663571657E-001
-3.2803679E-001	5.170072116422375E-001
-3.2698113E-001	5.225806127957719E-001
-3.2597965E-001	5.284976276948523E-001
-3.2505807E-001	5.347722311073451E-001
-3.2396975E-001	5.407468181241457E-001
-3.2312059E-001	5.467988347151778E-001
-3.2190415E-001	5.519337185448174E-001
-3.2102266E-001	5.579150955848124E-001
-3.2001230E-001	5.638491467883178E-001
-3.1903458E-001	5.700347499491407E-001
-3.1810227E-001	5.758795694758510E-001
-3.1708214E-001	5.814754822877823E-001
-3.1604970E-001	5.873186006487465E-001
-3.1507692E-001	5.931753400299273E-001
-3.1405768E-001	5.993444480829773E-001
-3.1295213E-001	6.052902801062912E-001
-3.1210971E-001	6.109287091013442E-001
-3.1109554E-001	6.164720484779966E-001
-3.0998933E-001	6.222483345141576E-001
-3.0903473E-001	6.285699589384929E-001
-3.0789071E-001	6.338443791286816E-001
-3.0703387E-001	6.398912012529689E-001
-3.0608231E-001	6.456227468809583E-001
-3.0494997E-001	6.513653330642879E-001
-3.0403167E-001	6.571714298467217E-001
-3.0304828E-001	6.624918657320542E-001
-3.0194584E-001	6.692559210652567E-001
-3.0092514E-001	6.740682897774537E-001
-3.0004686E-001	6.804212324183315E-001
-2.9897755E-001	6.863305077508643E-001
-2.9801679E-001	6.916053996424578E-001
-2.9702026E-001	6.976619630500149E-001
-2.9600075E-001	7.034867592155898E-001
-2.9490021E-001	7.091902200922533E-001
-2.9410815E-001	7.146162960540350E-001
-2.9297689E-001	7.207296672794534E-001
-2.9193640E-001	7.262055859863510E-001
-2.9095593E-001	7.319704423210140E-001
-2.8998056E-001	7.376613934972767E-001
-2.8889322E-001	7.428275752788611E-001
-2.8808179E-001	7.486398531882834E-001
-2.8700876E-001	7.546642379754860E-001
-2.8596079E-001	7.601880517408821E-001
-2.8500003E-001	7.666436839434816E-001
-2.8406236E-001	7.716035571485982E-001
-2.8302601E-001	7.771959624218709E-001
-2.8197595E-001	7.831551937593355E-001
-2.8107199E-001	7.886505956402292E-001
-2.7997601E-001	7.943915386718743E-001
-2.7906364E-001	8.007274123805548E-001
-2.7807036E-001	8.055336759424350E-001
-2.7687895E-001	8.114243425704792E-001
-2.7610150E-001	8.170518061077168E-001
-2.7511546E-001	8.225249964602561E-001
-2.7402708E-001	8.280142930646743E-001
-2.7293125E-001	8.342298027817829E-001
-2.7196372E-001	8.394989518817964E-001
-2.7092901E-001	8.446895804394217E-001
-2.6999435E-001	8.506398239621422E-001
-2.6899758E-001	8.561072642661998E-001
-2.6812467E-001	8.622513519669015E-001
-2.6687926E-001	8.674515175322668E-001
-2.6586547E-001	8.729306536717543E-001
-2.6508337E-001	8.784003870354784E-001
-2.6399180E-001	8.839441881411609E-001
-2.6304883E-001	8.890684729149854E-001
-2.6193395E-001	8.948091661764526E-001
-2.6095158E-001	9.001086576393327E-001
-2.6003957E-001	9.059887155128123E-001
-2.5893763E-001	9.110813829357989E-001
-2.5801000E-001	9.169815384127489E-001
-2.5697836E-001	9.226765935850807E-001
-2.5601918E-001	9.277921594955281E-001
-2.5483680E-001	9.336731062719075E-001
-2.5405881E-001	9.389049126617692E-001
-2.5307697E-001	9.440776458768898E-001
-2.5188696E-001	9.498370496763151E-001
-2.5108936E-001	9.552294935235430E-001
-2.4987152E-001	9.605220423804379E-001
-2.4902640E-001	9.662311862188311E-001
-2.4792480E-001	9.713071248060654E-001
-2.4692762E-001	9.770971266207855E-001
-2.4599278E-001	9.821489676833171E-001
-2.4500659E-001	9.876075348069593E-001
-2.4396697E-001	9.921964940925467E-001
-2.4304885E-001	9.978639102644387E-001
-2.4198419E-001	1.003189777741683E+000
-2.4113040E-001	1.008951628511699E+000
-2.3997767E-001	1.014348837236565E+000
-2.3904340E-001	1.020035357121051E+000
-2.3808932E-001	1.025127195511709E+000
-2.3695256E-001	1.030636762303336E+000
-2.3604532E-001	1.036430511297638E+000
-2.3491719E-001	1.041308538229382E+000
-2.3398149E-001	1.046530246458671E+000
-2.3292957E-001	1.052801262076629E+000
-2.3196520E-001	1.057706474292058E+000
-2.3111328E-001	1.062666443900929E+000
-2.3005712E-001	1.069351785940731E+000
-2.2892246E-001	1.073335747751925E+000
-2.2802156E-001	1.078502202889430E+000
-2.2701606E-001	1.084205981002047E+000
-2.2590856E-001	1.089218596203459E+000
-2.2493401E-001	1.094948865887194E+000
-2.2380850E-001	1.101539798053921E+000
-2.2275357E-001	1.107747346576719E+000
-2.2180080E-001	1.112984652546128E+000
-2.2081366E-001	1.118527018637572E+000
-2.1970953E-001	1.123167855458126E+000
-2.1877638E-001	1.128643070890359E+000
-2.1779108E-001	1.133928624568160E+000
-2.1680912E-001	1.139374885156201E+000
-2.1576767E-001	1.144369613020067E+000
-2.1470037E-001	1.149507191308119E+000
-2.1380414E-001	1.154628371612890E+000
-2.1271157E-001	1.159847016693783E+000
-2.1181990E-001	1.165665626525883E+000
-2.1081652E-001	1.170178787437857E+000
-2.0974815E-001	1.176313627310574E+000
-2.0878582E-001	1.180585530069145E+000
-2.0771459E-001	1.186353344470268E+000
-2.0682020E-001	1.191118371645483E+000
-2.0581628E-001	1.196364075083423E+000
-2.0481375E-001	1.201938970635336E+000
-2.0380017E-001	1.207009903119347E+000
-2.0289591E-001	1.212343896842665E+000
-2.0177631E-001	1.217159753182421E+000
-2.0075132E-001	1.222159406317006E+000
-1.9978930E-001	1.230069304919907E+000
-1.9872589E-001	1.233045380838497E+000
-1.9781248E-001	1.237985263066381E+000
-1.9684410E-001	1.242635238363785E+000
-1.9578305E-001	1.247411510182754E+000
-1.9484338E-001	1.252463300504594E+000
-1.9377674E-001	1.257588712429563E+000
-1.9279332E-001	1.262710894837422E+000
-1.9184826E-001	1.267143043487209E+000
-1.9079085E-001	1.272819124990040E+000
-1.8981123E-001	1.279791214813789E+000
-1.8875192E-001	1.282920375181611E+000
-1.8776719E-001	1.287750753815530E+000
-1.8685716E-001	1.292574325231488E+000
-1.8581566E-001	1.298231105515944E+000
-1.8481480E-001	1.302655060258168E+000
-1.8380274E-001	1.307728418597471E+000
-1.8278940E-001	1.312916747235882E+000
-1.8182591E-001	1.318230247056041E+000
-1.8071373E-001	1.323253358679786E+000
-1.7981833E-001	1.329887619485032E+000
-1.7875068E-001	1.332713694484147E+000
-1.7786607E-001	1.338216192057424E+000
-1.7676371E-001	1.342525219337809E+000
-1.7569417E-001	1.347826502665322E+000
-1.7487946E-001	1.352909206296489E+000
-1.7385608E-001	1.357766257116089E+000
-1.7275089E-001	1.362887291996564E+000
-1.7187017E-001	1.367838717431924E+000
-1.7087737E-001	1.373871673312451E+000
-1.6977561E-001	1.378652091931417E+000
-1.6882457E-001	1.382015318874885E+000
-1.6780853E-001	1.387133804598339E+000
-1.6680771E-001	1.392556599582790E+000
-1.6574873E-001	1.397766808702681E+000
-1.6479038E-001	1.401737465350716E+000
-1.6377811E-001	1.407008889096752E+000
-1.6279659E-001	1.411716764846247E+000
-1.6183460E-001	1.417064564923450E+000
-1.6081408E-001	1.423501907951298E+000
-1.5982457E-001	1.427754521801856E+000
-1.5883280E-001	1.432416308395286E+000
-1.5774606E-001	1.436054072170350E+000
-1.5682511E-001	1.440722657677398E+000
-1.5577623E-001	1.444811745236315E+000
-1.5486346E-001	1.450468879193069E+000
-1.5386245E-001	1.455768592773740E+000
-1.5284932E-001	1.460209030795982E+000
-1.5185697E-001	1.464994380871453E+000
-1.5080050E-001	1.472323817286544E+000
-1.4975353E-001	1.475581598640588E+000
-1.4882016E-001	1.479384281845000E+000
-1.4786179E-001	1.484660443856804E+000
-1.4678948E-001	1.489193731436018E+000
-1.4579184E-001	1.494070460536960E+000
-1.4480494E-001	1.498790684874248E+000
-1.4377218E-001	1.504362070312105E+000
-1.4279808E-001	1.509028329893396E+000
-1.4181504E-001	1.513334936331901E+000
-1.4082572E-001	1.520580710774219E+000
-1.3977082E-001	1.523118180119319E+000
-1.3882454E-001	1.527303429721771E+000
-1.3784702E-001	1.531617878901740E+000
-1.3682605E-001	1.536254095120569E+000
-1.3572700E-001	1.541539001431076E+000
-1.3480788E-001	1.545826874397420E+000
-1.3375084E-001	1.550289614471019E+000
-1.3281547E-001	1.554950735747139E+000
-1.3178718E-001	1.559365283283927E+000
-1.3075519E-001	1.563422835535469E+000
-1.2988359E-001	1.569113570353039E+000
-1.2889738E-001	1.573731337708452E+000
-1.2782805E-001	1.578160219998281E+000
-1.2683508E-001	1.583381767993175E+000
-1.2579925E-001	1.587891908983391E+000
-1.2479504E-001	1.592522746434924E+000
-1.2383977E-001	1.596755970588931E+000
-1.2284940E-001	1.601508193821829E+000
-1.2178347E-001	1.606023999275989E+000
-1.2078044E-001	1.610220270344819E+000
-1.1989193E-001	1.614964790090358E+000
-1.1878652E-001	1.620658892172353E+000
-1.1775453E-001	1.624262732488134E+000
-1.1682860E-001	1.629119469335780E+000
-1.1578048E-001	1.633718602359291E+000
-1.1478940E-001	1.637771292789061E+000
-1.1382741E-001	1.642930807890721E+000
-1.1275145E-001	1.647140108788417E+000
-1.1189175E-001	1.652013837739275E+000
-1.1087120E-001	1.655919970461618E+000
-1.0982133E-001	1.660934609252983E+000
-1.0879894E-001	1.665610509062258E+000
-1.0781381E-001	1.670523605688857E+000
-1.0680890E-001	1.674507101534608E+000
-1.0586246E-001	1.678569752584998E+000
-1.0484318E-001	1.683486836376018E+000
-1.0382312E-001	1.687681125754185E+000
-1.0275628E-001	1.692296321745260E+000
-1.0180128E-001	1.696614440392558E+000
-1.0080644E-001	1.700910536522855E+000
-9.9804729E-002	1.705382057086183E+000
-9.8840401E-002	1.710061013146678E+000
-9.7913153E-002	1.714174827376389E+000
-9.6767910E-002	1.718749230382613E+000
-9.5849827E-002	1.723226627541912E+000
-9.4804771E-002	1.727639365100661E+000
-9.3812771E-002	1.731626397757620E+000
-9.2822552E-002	1.736399101714284E+000
-9.1857128E-002	1.740652157586851E+000
-9.0870991E-002	1.745081378629912E+000
-8.9825407E-002	1.749864294021229E+000
-8.8813715E-002	1.754358661281407E+000
-8.7845840E-002	1.758101779277673E+000
-8.6786903E-002	1.762237673280421E+000
-8.5808165E-002	1.767239622014205E+000
-8.4867775E-002	1.770809604889823E+000
-8.3808415E-002	1.776034891329424E+000
-8.2864858E-002	1.780572012652911E+000
-8.1854716E-002	1.784713458131861E+000
-8.0838203E-002	1.788235843181603E+000
-7.9838410E-002	1.792257242995589E+000
-7.8862660E-002	1.796922076355526E+000
-7.7847846E-002	1.801105384473451E+000
-7.6855771E-002	1.805369323882889E+000
-7.5867221E-002	1.809393451721586E+000
-7.4920908E-002	1.814091581437330E+000
-7.3843986E-002	1.818359628821158E+000
-7.2810031E-002	1.823072554612602E+000
-7.1874134E-002	1.826599198083084E+000
-7.0900977E-002	1.831252505772451E+000
-6.9803759E-002	1.835588520599735E+000
-6.8808883E-002	1.839976966657019E+000
-6.7905888E-002	1.843769467408517E+000
-6.6959135E-002	1.847717441342489E+000
-6.5840587E-002	1.851990809595146E+000
-6.4801037E-002	1.855947819510011E+000
-6.3812442E-002	1.860246559811960E+000
-6.2811829E-002	1.864585493725759E+000
-6.1798748E-002	1.867875946600365E+000
-6.0856871E-002	1.872178752665171E+000
-5.9856262E-002	1.876333647580054E+000
-5.8836758E-002	1.881490544091921E+000
-5.7793528E-002	1.884533944229283E+000
-5.6867179E-002	1.888947293438285E+000
-5.5868845E-002	1.893041432534403E+000
-5.4828838E-002	1.897056498185350E+000
-5.3915210E-002	1.901277329358795E+000
-5.2829850E-002	1.905392989718027E+000
-5.1841024E-002	1.909307935447607E+000
-5.0889209E-002	1.913123825633972E+000
-4.9866542E-002	1.917671730828836E+000
-4.8823722E-002	1.922778080458997E+000
-4.7840938E-002	1.925965717269328E+000
-4.6814878E-002	1.930146594386361E+000
-4.5875154E-002	1.933945608911692E+000
-4.4807129E-002	1.938097614154907E+000
-4.3743484E-002	1.941015503196809E+000
-4.2853817E-002	1.945977773931293E+000
-4.1861281E-002	1.950983805706557E+000
-4.0815912E-002	1.952927512427177E+000
-3.9863672E-002	1.958137999254244E+000
-3.8856477E-002	1.961608107326601E+000
-3.7816860E-002	1.966355149944619E+000
-3.6771700E-002	1.969431472321343E+000
-3.5832699E-002	1.973666864203228E+000
-3.4861073E-002	1.977825481582578E+000
-3.3881258E-002	1.981814330926653E+000
-3.2862157E-002	1.985216807213902E+000
-3.1888954E-002	1.988900717209880E+000
-3.0849742E-002	1.992403664798648E+000
-2.9953923E-002	1.996656980683319E+000
-2.8894139E-002	2.000566682053940E+000
-2.7942959E-002	2.004849886728660E+000
-2.6859980E-002	2.008694905274849E+000
-2.5786048E-002	2.011811656808398E+000
-2.4799231E-002	2.016319699309491E+000
-2.3818227E-002	2.020474709587969E+000
-2.2819446E-002	2.023743330880443E+000
-2.1862116E-002	2.027351328620199E+000
-2.0807451E-002	2.030275508029355E+000
-1.9899299E-002	2.035139134360687E+000
-1.8847572E-002	2.038986622459355E+000
-1.7904272E-002	2.042448515711145E+000
-1.6929518E-002	2.046204491345968E+000
-1.5931457E-002	2.050278436530519E+000
-1.4827387E-002	2.053808264664486E+000
-1.3888033E-002	2.057313224783648E+000
-1.2881489E-002	2.060989574149801E+000
-1.1879200E-002	2.065145291266113E+000
-1.0872855E-002	2.068754354836763E+000
-9.8730968E-003	2.073072906445575E+000
-8.8402852E-003	2.075598411549407E+000
-7.8214006E-003	2.080552316926141E+000
-6.8977992E-003	2.083438580786737E+000
-5.8500133E-003	2.086313482143213E+000
-4.8836488E-003	2.090683180148947E+000
-3.9091357E-003	2.095359785689242E+000
-2.9047737E-003	2.098241074957590E+000
-1.8553180E-003	2.101947002940712E+000
-8.7910728E-004	2.105974992116288E+000
1.7858727E-004	2.109800091212981E+000
1.1259204E-003	2.112847290105289E+000
2.0546140E-003	2.116713926747991E+000
3.2258902E-003	2.120050187206578E+000
4.1542505E-003	2.123793388958337E+000
5.1067024E-003	2.126632965549280E+000
6.1086495E-003	2.130566638145954E+000
6.6287178E-003	2.132684677839276E+000
6.7318114E-003	2.132457464933395E+000