EC-Lab ASCII FILE
Nb header lines : 63                          

Linear Sweep Voltammetry

Run on channel : 6 (SN 13765)
User : 
Electrode connection : standard
Potential control : Ewe
Ewe ctrl range : min = -2.50 V, max = 2.50 V
Ewe,I filtering : <None>
Safety Limits :
	Do not start on E overload
Channel : Floating
Acquisition started on : 07/13/2026 15:20:25.051
Technique started on : 07/13/2026 15:20:26.048
Loaded Setting File :  C:\Users\EEM-620\Desktop\Wade\20260630\LSV 1mg MoS2 1_C06.mpr
Saved on :
	File : N719_0713-a-4_C06.mpr
	Directory : C:\Users\EEM-620\Desktop\Wade\abao\20260713\
	Host : 192.109.209.200
Device : VSP-300 (SN 0025)
Address : 192.109.209.129
EC-LAB for windows v11.62 (software)
Internet server v27.00 (firmware)
Command interpretor v12.02 (firmware)
Electrode material : Au/Pd
Initial state : 
Electrolyte : NaCl (0.2M)
Comments : Fe(CN)63-/Fe(CN)64- 5.10-3 M
Cable : ULC
Reference electrode : SCE Saturated Calomel Electrode (0.241 V)
Electrode surface area : 0.001 cm2
Characteristic mass : 0.001 g
Equivalent Weight : 0.000 g/eq.
Density : 0.000 g/cm3
Volume (V) : 0.001 cm3
Cycle Definition : Charge/Discharge alternance
tR (h:m:s)          0:00:5.0000         
dER/dt (mV/h)       0.0                 
dER (mV)            0                   
dtR (s)             0.0500              
dE/dt               10.000              
dE/dt unit          mV/s                
Ei (V)              -0.800              
vs.                 Ref                 
EL (V)              0.010               
vs.                 Ref                 
record              <I>                 
dI                  0.000               
unit dI             uA                  
tI (s)              0.0000              
step percent        50                  
N                   10                  
E range min (V)     -2.500              
E range max (V)     2.500               
I Range             Auto                
I Range min         Unset               
I Range max         Unset               
I Range init        Unset               
Bandwidth           8                   

Ewe/V	<I>/mA	
-5.7286978E-001	0.000000000000000E+000
-5.7291943E-001	0.000000000000000E+000
-5.7282776E-001	0.000000000000000E+000
-5.7261014E-001	0.000000000000000E+000
-5.7299578E-001	0.000000000000000E+000
-5.7282394E-001	0.000000000000000E+000
-5.7286596E-001	0.000000000000000E+000
-5.7270938E-001	0.000000000000000E+000
-5.7293087E-001	0.000000000000000E+000
-5.7311034E-001	0.000000000000000E+000
-5.7299960E-001	0.000000000000000E+000
-5.7288885E-001	0.000000000000000E+000
-5.7277817E-001	0.000000000000000E+000
-5.7263684E-001	0.000000000000000E+000
-5.7264066E-001	0.000000000000000E+000
-5.7291943E-001	0.000000000000000E+000
-5.7227033E-001	0.000000000000000E+000
-5.7304162E-001	0.000000000000000E+000
-5.7286978E-001	0.000000000000000E+000
-5.7288885E-001	0.000000000000000E+000
-5.7273233E-001	0.000000000000000E+000
-5.7254905E-001	0.000000000000000E+000
-5.7286596E-001	0.000000000000000E+000
-5.7298815E-001	0.000000000000000E+000
-5.7277054E-001	0.000000000000000E+000
-5.7259488E-001	0.000000000000000E+000
-5.7279724E-001	0.000000000000000E+000
-5.7284302E-001	0.000000000000000E+000
-5.7286978E-001	0.000000000000000E+000
-5.7299578E-001	0.000000000000000E+000
-5.7283539E-001	0.000000000000000E+000
-5.7285833E-001	0.000000000000000E+000
-5.7291180E-001	0.000000000000000E+000
-5.7288122E-001	0.000000000000000E+000
-5.7262921E-001	0.000000000000000E+000
-5.7292324E-001	0.000000000000000E+000
-5.7288122E-001	0.000000000000000E+000
-5.7306069E-001	0.000000000000000E+000
-5.7299960E-001	0.000000000000000E+000
-5.7265979E-001	0.000000000000000E+000
-5.7269794E-001	0.000000000000000E+000
-5.7280105E-001	0.000000000000000E+000
-5.7259870E-001	0.000000000000000E+000
-5.7270944E-001	0.000000000000000E+000
-5.7304543E-001	0.000000000000000E+000
-5.7278198E-001	0.000000000000000E+000
-5.7273614E-001	0.000000000000000E+000
-5.7301104E-001	0.000000000000000E+000
-5.7265592E-001	0.000000000000000E+000
-5.7286215E-001	0.000000000000000E+000
-5.7278961E-001	0.000000000000000E+000
-5.7296520E-001	0.000000000000000E+000
-5.7265979E-001	0.000000000000000E+000
-5.7302254E-001	0.000000000000000E+000
-5.7320577E-001	0.000000000000000E+000
-5.7335854E-001	0.000000000000000E+000
-5.7304156E-001	0.000000000000000E+000
-5.7328212E-001	0.000000000000000E+000
-5.7294613E-001	0.000000000000000E+000
-5.7335466E-001	0.000000000000000E+000
-5.7275903E-001	0.000000000000000E+000
-5.7801300E-001	0.000000000000000E+000
-5.7774574E-001	0.000000000000000E+000
-7.8953499E-001	-2.605194293934368E+000
-7.8870267E-001	-2.591306967526901E+000
-7.8776199E-001	-2.569634670460661E+000
-7.8667682E-001	-2.550135816688890E+000
-7.8567529E-001	-2.532369342268453E+000
-7.8469461E-001	-2.515793776070629E+000
-7.8370166E-001	-2.500138204958709E+000
-7.8274971E-001	-2.485223481636922E+000
-7.8174347E-001	-2.470412552080774E+000
-7.8077018E-001	-2.456008495555984E+000
-7.7974099E-001	-2.442184948736703E+000
-7.7869272E-001	-2.428553589516205E+000
-7.7779281E-001	-2.414638599863764E+000
-7.7673078E-001	-2.401233952963956E+000
-7.7575451E-001	-2.388237692139761E+000
-7.7477998E-001	-2.374948268135387E+000
-7.7377892E-001	-2.361594641974083E+000
-7.7276284E-001	-2.348523773804857E+000
-7.7180654E-001	-2.335267087651616E+000
-7.7081692E-001	-2.322450455763594E+000
-7.6975054E-001	-2.309217675140603E+000
-7.6878524E-001	-2.296320394785319E+000
-7.6771551E-001	-2.283021283473033E+000
-7.6674420E-001	-2.270128327663308E+000
-7.6576948E-001	-2.257232973145122E+000
-7.6479608E-001	-2.244222086360281E+000
-7.6381093E-001	-2.231186698708271E+000
-7.6277530E-001	-2.218403377742675E+000
-7.6172036E-001	-2.205599121041541E+000
-7.6080263E-001	-2.192656994693811E+000
-7.5970513E-001	-2.179863688294527E+000
-7.5874573E-001	-2.167056799810769E+000
-7.5779110E-001	-2.154079246024288E+000
-7.5675470E-001	-2.141068414129585E+000
-7.5578827E-001	-2.128247189409002E+000
-7.5476342E-001	-2.115563206374649E+000
-7.5381976E-001	-2.103222138509459E+000
-7.5275177E-001	-2.090286541040296E+000
-7.5179577E-001	-2.077274844050418E+000
-7.5078511E-001	-2.064606184560637E+000
-7.4982578E-001	-2.052064867207287E+000
-7.4874043E-001	-2.039281173988627E+000
-7.4782926E-001	-2.026475165133933E+000
-7.4685514E-001	-2.013752063391394E+000
-7.4576545E-001	-2.001108144720394E+000
-7.4483514E-001	-1.988604316780038E+000
-7.4377578E-001	-1.975961289196114E+000
-7.4274921E-001	-1.963371211455922E+000
-7.4179286E-001	-1.950642658481549E+000
-7.4087477E-001	-1.938233215775767E+000
-7.3980695E-001	-1.925242845382943E+000
-7.3878914E-001	-1.912763656402806E+000
-7.3783845E-001	-1.900080504240819E+000
-7.3686266E-001	-1.887410051292842E+000
-7.3579133E-001	-1.875095846536849E+000
-7.3478526E-001	-1.862523309058613E+000
-7.3381114E-001	-1.850076823322860E+000
-7.3281568E-001	-1.837411491626291E+000
-7.3182166E-001	-1.824739272119828E+000
-7.3083007E-001	-1.812341125750986E+000
-7.2983342E-001	-1.799647314006535E+000
-7.2879899E-001	-1.786920608469742E+000
-7.2772586E-001	-1.774558992021610E+000
-7.2680485E-001	-1.762001062231628E+000
-7.2578424E-001	-1.749445040744767E+000
-7.2479939E-001	-1.737356481176825E+000
-7.2378385E-001	-1.724431443585871E+000
-7.2278583E-001	-1.712128066906219E+000
-7.2182232E-001	-1.699811972677715E+000
-7.2088122E-001	-1.687457324317662E+000
-7.1970010E-001	-1.674680563310780E+000
-7.1880460E-001	-1.662422142370993E+000
-7.1784973E-001	-1.650075731319056E+000
-7.1680719E-001	-1.637456290147920E+000
-7.1584147E-001	-1.625202025528306E+000
-7.1480739E-001	-1.612768604143717E+000
-7.1380311E-001	-1.600400514072842E+000
-7.1277702E-001	-1.588249261456507E+000
-7.1183413E-001	-1.575983064510266E+000
-7.1075356E-001	-1.563722808051981E+000
-7.0977581E-001	-1.551477148439044E+000
-7.0883715E-001	-1.538847635263522E+000
-7.0788264E-001	-1.526735624229470E+000
-7.0684981E-001	-1.514371202085862E+000
-7.0578241E-001	-1.502012710152448E+000
-7.0481372E-001	-1.489820349271652E+000
-7.0383376E-001	-1.477627559254564E+000
-7.0282203E-001	-1.465317289913990E+000
-7.0190811E-001	-1.453180527521502E+000
-7.0086324E-001	-1.440890101784909E+000
-6.9986385E-001	-1.428346832732529E+000
-6.9884920E-001	-1.416097941497966E+000
-6.9780689E-001	-1.404253285654164E+000
-6.9680876E-001	-1.391910785968126E+000
-6.9589704E-001	-1.379460958556992E+000
-6.9486314E-001	-1.367456293492401E+000
-6.9379371E-001	-1.355232556618969E+000
-6.9281393E-001	-1.342911491101539E+000
-6.9185466E-001	-1.330727455792602E+000
-6.9080764E-001	-1.318599004208467E+000
-6.8982887E-001	-1.306526428571453E+000
-6.8877089E-001	-1.294297932739182E+000
-6.8783677E-001	-1.282244287293263E+000
-6.8687415E-001	-1.270383246243001E+000
-6.8582189E-001	-1.258112898689064E+000
-6.8481672E-001	-1.245982550084591E+000
-6.8381971E-001	-1.233784401582344E+000
-6.8277431E-001	-1.221916648222857E+000
-6.8186456E-001	-1.209910040238395E+000
-6.8087864E-001	-1.197974209294272E+000
-6.7981970E-001	-1.185821993878001E+000
-6.7886865E-001	-1.173780911912519E+000
-6.7787629E-001	-1.161856759201600E+000
-6.7683655E-001	-1.149663456519971E+000
-6.7583078E-001	-1.138008511866691E+000
-6.7483437E-001	-1.125830659435857E+000
-6.7380220E-001	-1.113896257046278E+000
-6.7281961E-001	-1.102075354230625E+000
-6.7181987E-001	-1.090239770848443E+000
-6.7085445E-001	-1.078367567328886E+000
-6.6978091E-001	-1.066234125031366E+000
-6.6881579E-001	-1.054150315208563E+000
-6.6786844E-001	-1.042556416659963E+000
-6.6676855E-001	-1.030706191504439E+000
-6.6587031E-001	-1.018738166739542E+000
-6.6484332E-001	-1.007033124970583E+000
-6.6380823E-001	-9.952845068441496E-001
-6.6273826E-001	-9.835943858380691E-001
-6.6182435E-001	-9.717694333244058E-001
-6.6089022E-001	-9.597474493914184E-001
-6.5980756E-001	-9.477446480757603E-001
-6.5887511E-001	-9.360720666886486E-001
-6.5786082E-001	-9.247349604136419E-001
-6.5680146E-001	-9.130529448114011E-001
-6.5589035E-001	-9.014748668354695E-001
-6.5479451E-001	-8.894091489966272E-001
-6.5384424E-001	-8.774732142962733E-001
-6.5282661E-001	-8.659639968248366E-001
-6.5185916E-001	-8.543902395500105E-001
-6.5081567E-001	-8.425252398958927E-001
-6.4979905E-001	-8.309360531980250E-001
-6.4888060E-001	-8.193641896877015E-001
-6.4777607E-001	-8.076572423731834E-001
-6.4682096E-001	-7.956658117657112E-001
-6.4583343E-001	-7.844710583902064E-001
-6.4473569E-001	-7.730416144347858E-001
-6.4378959E-001	-7.609205196744839E-001
-6.4286262E-001	-7.498752589303050E-001
-6.4184946E-001	-7.382325040935322E-001
-6.4083421E-001	-7.266027800579344E-001
-6.3985384E-001	-7.148169020397788E-001
-6.3885188E-001	-7.036279866954782E-001
-6.3778120E-001	-6.918829268700737E-001
-6.3676345E-001	-6.807452874879036E-001
-6.3585639E-001	-6.690933258721117E-001
-6.3486934E-001	-6.579904567256325E-001
-6.3385969E-001	-6.463972219024523E-001
-6.3289064E-001	-6.349645950314065E-001
-6.3184452E-001	-6.237536072969098E-001
-6.3081908E-001	-6.120292574719119E-001
-6.2987721E-001	-6.009858943246016E-001
-6.2886977E-001	-5.896233844656305E-001
-6.2786502E-001	-5.787455420941120E-001
-6.2684131E-001	-5.673877120845869E-001
-6.2584400E-001	-5.561497694724222E-001
-6.2491322E-001	-5.444593242611031E-001
-6.2385833E-001	-5.334115738206613E-001
-6.2279665E-001	-5.218347491765467E-001
-6.2191880E-001	-5.107472039483225E-001
-6.2085640E-001	-4.994765975364395E-001
-6.1986011E-001	-4.883235861995701E-001
-6.1893272E-001	-4.771151517828292E-001
-6.1795866E-001	-4.658617814434347E-001
-6.1687917E-001	-4.547265057486500E-001
-6.1565226E-001	-4.428090850512199E-001
-6.1467236E-001	-4.303250489686405E-001
-6.1353689E-001	-4.194029454417798E-001
-6.1258823E-001	-4.080049824659469E-001
-6.1166769E-001	-3.968841882549352E-001
-6.1069798E-001	-3.859902460266031E-001
-6.0969603E-001	-3.748974510020132E-001
-6.0861504E-001	-3.639168059132611E-001
-6.0751814E-001	-3.530240634249324E-001
-6.0661024E-001	-3.417375457852518E-001
-6.0555613E-001	-3.312196109442354E-001
-6.0477215E-001	-3.199789471303411E-001
-6.0365069E-001	-3.089145081186735E-001
-6.0258621E-001	-2.980470601768093E-001
-6.0148674E-001	-2.871226150611479E-001
-6.0065496E-001	-2.760338544569643E-001
-5.9951484E-001	-2.650481828811477E-001
-5.9860754E-001	-2.545058467183958E-001
-5.9762537E-001	-2.437310282278946E-001
-5.9662783E-001	-2.329079176312403E-001
-5.9539509E-001	-2.222890327857061E-001
-5.9463423E-001	-2.114524967209606E-001
-5.9356463E-001	-2.006661619331878E-001
-5.9262002E-001	-1.903538873453654E-001
-5.9157699E-001	-1.790592914654146E-001
-5.9056747E-001	-1.683296515819146E-001
-5.8956349E-001	-1.580562336818763E-001
-5.8865219E-001	-1.467608506963759E-001
-5.8753520E-001	-1.364871728036821E-001
-5.8644480E-001	-1.258266908634043E-001
-5.8571738E-001	-1.151979002342738E-001
-5.8455956E-001	-1.047239593116208E-001
-5.8345371E-001	-9.416379390663865E-002
-5.8263332E-001	-8.318579804014303E-002
-5.8159530E-001	-7.283289862223763E-002
-5.8039898E-001	-6.243102158488745E-002
-5.7960343E-001	-5.185721046722458E-002
-5.7844830E-001	-4.029900994228314E-002
-5.7731056E-001	-2.812582460076869E-002
-5.7626987E-001	-1.768923721874127E-002
-5.7526165E-001	-6.929257797040643E-003
-5.7421839E-001	3.212248941744524E-003
-5.7322770E-001	1.365886149529753E-002
-5.7218432E-001	2.414026738713593E-002
-5.7127792E-001	3.451728566411738E-002
-5.7027596E-001	4.459859133196442E-002
-5.6921172E-001	5.514463258872704E-002
-5.6818914E-001	6.507879352473001E-002
-5.6720513E-001	7.586833147101479E-002
-5.6637537E-001	8.568671120641147E-002
-5.6519681E-001	9.543562389875704E-002
-5.6411952E-001	1.066917740579796E-001
-5.6309998E-001	1.187151060439643E-001
-5.6199628E-001	1.288393624816782E-001
-5.6093156E-001	1.388948272010867E-001
-5.5998975E-001	1.491903527122410E-001
-5.5893886E-001	1.587769385703190E-001
-5.5811095E-001	1.688054211148258E-001
-5.5686575E-001	1.791730395483755E-001
-5.5602598E-001	1.889625668387731E-001
-5.5499858E-001	1.991207497126926E-001
-5.5407333E-001	2.091289909073603E-001
-5.5289680E-001	2.189342515129178E-001
-5.5189389E-001	2.291961460840712E-001
-5.5089015E-001	2.391143517430736E-001
-5.4987353E-001	2.484559679077387E-001
-5.4889995E-001	2.583245606058169E-001
-5.4797357E-001	2.682195066094959E-001
-5.4690808E-001	2.779528221714216E-001
-5.4590809E-001	2.875015178902292E-001
-5.4494184E-001	2.970853428942755E-001
-5.4387134E-001	3.067816892211148E-001
-5.4296184E-001	3.165727626808277E-001
-5.4198587E-001	3.258852565109169E-001
-5.4098904E-001	3.357858064243450E-001
-5.4000604E-001	3.450858883076799E-001
-5.3891152E-001	3.544511530824286E-001
-5.3799325E-001	3.646386407784306E-001
-5.3694254E-001	3.737087684373073E-001
-5.3587830E-001	3.830337111182818E-001
-5.3477722E-001	3.925219646314027E-001
-5.3400451E-001	4.018655399343483E-001
-5.3297490E-001	4.113038402326685E-001
-5.3190845E-001	4.207883882478942E-001
-5.3096437E-001	4.301470917546073E-001
-5.2993894E-001	4.393485031194135E-001
-5.2888465E-001	4.487747979107457E-001
-5.2794898E-001	4.580179491528753E-001
-5.2702242E-001	4.668945561128659E-001
-5.2607012E-001	4.760827605313853E-001
-5.2487475E-001	4.851841359502749E-001
-5.2408803E-001	4.944270343554269E-001
-5.2292478E-001	5.033829015912659E-001
-5.2185816E-001	5.124241731095109E-001
-5.2100158E-001	5.213596292391980E-001
-5.2013308E-001	5.305983494765325E-001
-5.1894838E-001	5.389122954673257E-001
-5.1805633E-001	5.483492483833334E-001
-5.1685309E-001	5.572481790820785E-001
-5.1590568E-001	5.662703400960671E-001
-5.1500529E-001	5.749534768638753E-001
-5.1388168E-001	5.834159194041031E-001
-5.1296026E-001	5.924276897200844E-001
-5.1190233E-001	6.014476373653705E-001
-5.1089293E-001	6.103544306010140E-001
-5.0995648E-001	6.189498962075635E-001
-5.0891131E-001	6.270733008644118E-001
-5.0794572E-001	6.363716807675370E-001
-5.0693005E-001	6.446995197071002E-001
-5.0591320E-001	6.536452118997205E-001
-5.0486875E-001	6.613152422184516E-001
-5.0396836E-001	6.704750500481449E-001
-5.0294316E-001	6.787868780256421E-001
-5.0197905E-001	6.878027209161894E-001
-5.0091141E-001	6.958601287117752E-001
-5.0003213E-001	7.043055598796535E-001
-4.9891868E-001	7.127173446482695E-001
-4.9797150E-001	7.210370753374367E-001
-4.9678171E-001	7.295272712492284E-001
-4.9603963E-001	7.372449977905209E-001
-4.9495846E-001	7.454728969131343E-001
-4.9401066E-001	7.539089266900660E-001
-4.9295685E-001	7.624042265165176E-001
-4.9189022E-001	7.700275576638980E-001
-4.9098131E-001	7.781824507509123E-001
-4.8999000E-001	7.863523503660526E-001
-4.8875436E-001	7.943940664883016E-001
-4.8789194E-001	8.021575088417725E-001
-4.8684287E-001	8.097076080739498E-001
-4.8581597E-001	8.180397226026748E-001
-4.8484656E-001	8.256430571836835E-001
-4.8400080E-001	8.340128249040326E-001
-4.8289543E-001	8.417619236365486E-001
-4.8189098E-001	8.493959055682918E-001
-4.8089677E-001	8.568340839335207E-001
-4.7990397E-001	8.650113039270622E-001
-4.7897133E-001	8.725632030506869E-001
-4.7795787E-001	8.803722092674828E-001
-4.7690052E-001	8.881538863535283E-001
-4.7579414E-001	8.951437790950258E-001
-4.7480974E-001	9.030986873915854E-001
-4.7388279E-001	9.106437581832770E-001
-4.7293752E-001	9.184384681345783E-001
-4.7193733E-001	9.258827838908736E-001
-4.7088727E-001	9.329572150276757E-001
-4.6992499E-001	9.407767286027351E-001
-4.6894947E-001	9.480380712559953E-001
-4.6785793E-001	9.550530155775689E-001
-4.6688423E-001	9.628760299513495E-001
-4.6584249E-001	9.692981997849781E-001
-4.6494520E-001	9.768650028164698E-001
-4.6390894E-001	9.833437775859524E-001
-4.6286756E-001	9.911491676337167E-001
-4.6184447E-001	9.979872329643449E-001
-4.6083626E-001	1.005262817171769E+000
-4.5985600E-001	1.011990031020506E+000
-4.5877418E-001	1.020008483832637E+000
-4.5800447E-001	1.026285852195961E+000
-4.5687354E-001	1.032904267587041E+000
-4.5590517E-001	1.040168035223525E+000
-4.5487475E-001	1.046614774805678E+000
-4.5381060E-001	1.053783655856496E+000
-4.5279628E-001	1.060685627714357E+000
-4.5195302E-001	1.067092208170408E+000
-4.5104825E-001	1.073268398504565E+000
-4.4984326E-001	1.080410986310909E+000
-4.4895214E-001	1.086845863113298E+000
-4.4785368E-001	1.093341227620838E+000
-4.4680163E-001	1.101760446852829E+000
-4.4577965E-001	1.109227446254321E+000
-4.4470572E-001	1.115374121401043E+000
-4.4367155E-001	1.122198183641384E+000
-4.4271913E-001	1.128730917808371E+000
-4.4168395E-001	1.134765162926029E+000
-4.4072369E-001	1.141145436074993E+000
-4.3971476E-001	1.147386316072059E+000
-4.3870434E-001	1.153225862317612E+000
-4.3768412E-001	1.159736780542396E+000
-4.3673474E-001	1.165539762902034E+000
-4.3573713E-001	1.172212505782099E+000
-4.3475088E-001	1.178107138042672E+000
-4.3373385E-001	1.184372205287218E+000
-4.3279389E-001	1.189871944211145E+000
-4.3173444E-001	1.196021430890114E+000
-4.3074349E-001	1.202087023881852E+000
-4.2974070E-001	1.207981093200271E+000
-4.2879528E-001	1.214321168485576E+000
-4.2769751E-001	1.220266219642428E+000
-4.2666429E-001	1.225819488090497E+000
-4.2565322E-001	1.230834991670271E+000
-4.2475063E-001	1.237785683599888E+000
-4.2362171E-001	1.243824134132378E+000
-4.2274228E-001	1.248819367292677E+000
-4.2175713E-001	1.255148976489355E+000
-4.2072025E-001	1.261067041920292E+000
-4.1969505E-001	1.266518690493328E+000
-4.1868678E-001	1.271395443490259E+000
-4.1775769E-001	1.277371064104416E+000
-4.1667014E-001	1.283362633506981E+000
-4.1566715E-001	1.288851043830318E+000
-4.1474947E-001	1.294121368615714E+000
-4.1370866E-001	1.299999246949207E+000
-4.1272491E-001	1.305650983833605E+000
-4.1168740E-001	1.310864538092311E+000
-4.1067773E-001	1.316958704712921E+000
-4.0966076E-001	1.321874894339732E+000
-4.0876430E-001	1.326776705958224E+000
-4.0776610E-001	1.332694864784640E+000
-4.0672955E-001	1.337573410736186E+000
-4.0571308E-001	1.342955361085910E+000
-4.0475655E-001	1.347677115358058E+000
-4.0373731E-001	1.353537887334825E+000
-4.0273139E-001	1.358654180196702E+000
-4.0178350E-001	1.363752162893046E+000
-4.0078750E-001	1.369023204677634E+000
-3.9975882E-001	1.373925906364567E+000
-3.9863995E-001	1.378817085184045E+000
-3.9777440E-001	1.383677010734879E+000
-3.9664230E-001	1.389487580982625E+000
-3.9571458E-001	1.394376368739579E+000
-3.9471471E-001	1.399130440420578E+000
-3.9378747E-001	1.404058608605904E+000
-3.9277405E-001	1.408778787506000E+000
-3.9174026E-001	1.413493732335390E+000
-3.9069656E-001	1.418286743677328E+000
-3.8970128E-001	1.422777116153899E+000
-3.8867667E-001	1.428067597526088E+000
-3.8768771E-001	1.432676441415591E+000
-3.8668051E-001	1.437805460729095E+000
-3.8571575E-001	1.442423768617491E+000
-3.8475865E-001	1.446126168386801E+000
-3.8376510E-001	1.451650435985336E+000
-3.8272056E-001	1.455825874512946E+000
-3.8171571E-001	1.460514462518468E+000
-3.8073000E-001	1.465434012868009E+000
-3.7969711E-001	1.470423578250191E+000
-3.7864137E-001	1.474242258541015E+000
-3.7767446E-001	1.479571763378075E+000
-3.7681282E-001	1.483608904398150E+000
-3.7572142E-001	1.488026077272714E+000
-3.7474325E-001	1.493151958024008E+000
-3.7368605E-001	1.497055587255289E+000
-3.7272131E-001	1.501074148191044E+000
-3.7171265E-001	1.505655097188772E+000
-3.7073836E-001	1.510818597343230E+000
-3.6968037E-001	1.514817666536423E+000
-3.6871907E-001	1.519453505261074E+000
-3.6776388E-001	1.523688840231408E+000
-3.6665487E-001	1.527333927664710E+000
-3.6571813E-001	1.531423644473147E+000
-3.6468124E-001	1.536369228666581E+000
-3.6374876E-001	1.540531190179987E+000
-3.6266074E-001	1.544234161299691E+000
-3.6169559E-001	1.549402149463134E+000
-3.6074680E-001	1.553280642999788E+000
-3.5969582E-001	1.557437089858235E+000
-3.5878834E-001	1.561706441420098E+000
-3.5777596E-001	1.565722875458917E+000
-3.5671839E-001	1.569977888078603E+000
-3.5572183E-001	1.574321670388727E+000
-3.5477355E-001	1.577985455948159E+000
-3.5366672E-001	1.582161259871938E+000
-3.5276458E-001	1.586215866384696E+000
-3.5173342E-001	1.590707459971934E+000
-3.5071623E-001	1.594878195612520E+000
-3.4976315E-001	1.598628979866147E+000
-3.4867519E-001	1.602943099031393E+000
-3.4779206E-001	1.606939807810166E+000
-3.4671319E-001	1.610280403384462E+000
-3.4572676E-001	1.614052349099776E+000
-3.4485048E-001	1.617682745887169E+000
-3.4374025E-001	1.622011897464597E+000
-3.4278527E-001	1.625759875405521E+000
-3.4173924E-001	1.629983255984612E+000
-3.4072697E-001	1.634105501903420E+000
-3.3976108E-001	1.637597376972678E+000
-3.3874208E-001	1.640494783719383E+000
-3.3773622E-001	1.644569635391237E+000
-3.3670685E-001	1.648762421462852E+000
-3.3567941E-001	1.652543782360019E+000
-3.3479288E-001	1.656531686584154E+000
-3.3376852E-001	1.660513961359356E+000
-3.3276856E-001	1.663383392548132E+000
-3.3176818E-001	1.667586395034075E+000
-3.3072475E-001	1.670954929680541E+000
-3.2973197E-001	1.674801431320343E+000
-3.2885271E-001	1.678035360519534E+000
-3.2773107E-001	1.682032044083897E+000
-3.2681036E-001	1.686121103388289E+000
-3.2575482E-001	1.689396658981284E+000
-3.2479629E-001	1.693259067370004E+000
-3.2380897E-001	1.698058304135451E+000
-3.2274282E-001	1.701260388725331E+000
-3.2176003E-001	1.703725530002306E+000
-3.2080886E-001	1.708008896145556E+000
-3.1973249E-001	1.711692010362938E+000
-3.1887534E-001	1.714659765201372E+000
-3.1774125E-001	1.718953493568632E+000
-3.1677246E-001	1.722312277941793E+000
-3.1579784E-001	1.725815728544141E+000
-3.1473309E-001	1.729047932834540E+000
-3.1380650E-001	1.732359465625557E+000
-3.1278977E-001	1.735780434883928E+000
-3.1174567E-001	1.740032415147180E+000
-3.1079581E-001	1.743284158960538E+000
-3.0978584E-001	1.746388115900640E+000
-3.0874872E-001	1.749705415908936E+000
-3.0776167E-001	1.754403451881785E+000
-3.0680931E-001	1.756654942753137E+000
-3.0582649E-001	1.759915111517471E+000
-3.0481583E-001	1.763834448840718E+000
-3.0377948E-001	1.767461670769588E+000
-3.0280197E-001	1.770701573402796E+000
-3.0173525E-001	1.774274091676659E+000
-3.0082265E-001	1.776995353952611E+000
-2.9976517E-001	1.780180863484208E+000
-2.9872963E-001	1.784695112938454E+000
-2.9779324E-001	1.788317703538477E+000
-2.9676312E-001	1.791158244013779E+000
-2.9574466E-001	1.794626166531380E+000
-2.9475364E-001	1.798764107127984E+000
-2.9373860E-001	1.800657959172025E+000
-2.9273212E-001	1.804405940494642E+000
-2.9175863E-001	1.808437303812426E+000
-2.9075125E-001	1.811628896329136E+000
-2.8983140E-001	1.813996993742855E+000
-2.8879011E-001	1.818162030919837E+000
-2.8775597E-001	1.821327515222400E+000
-2.8676966E-001	1.824437837415385E+000
-2.8580567E-001	1.827713526785377E+000
-2.8474694E-001	1.830897039837311E+000
-2.8379419E-001	1.834478944101608E+000
-2.8272054E-001	1.837398665922660E+000
-2.8171122E-001	1.841144033328252E+000
-2.8079745E-001	1.844916231673652E+000
-2.7978829E-001	1.847472368015175E+000
-2.7875966E-001	1.850344781522401E+000
-2.7781907E-001	1.853902773506380E+000
-2.7670419E-001	1.856204281250641E+000
-2.7575296E-001	1.860071791542898E+000
-2.7475360E-001	1.862952131714637E+000
-2.7371785E-001	1.866208233767082E+000
-2.7266783E-001	1.869619404552164E+000
-2.7171704E-001	1.872106344682553E+000
-2.7079111E-001	1.875215364827049E+000
-2.6971033E-001	1.878596467828309E+000
-2.6874235E-001	1.882253218569304E+000
-2.6783213E-001	1.884842224143178E+000
-2.6679379E-001	1.888218137677068E+000
-2.6576760E-001	1.891305819818257E+000
-2.6473913E-001	1.893649840244537E+000
-2.6377180E-001	1.897751771741444E+000
-2.6275676E-001	1.900265019341916E+000
-2.6182979E-001	1.904195492466293E+000
-2.6081923E-001	1.907192306386108E+000
-2.5974891E-001	1.909604973485738E+000
-2.5877070E-001	1.912754309950062E+000
-2.5784305E-001	1.915769527907727E+000
-2.5682512E-001	1.919344296170808E+000
-2.5578606E-001	1.922197838900276E+000
-2.5478697E-001	1.924906217389630E+000
-2.5379404E-001	1.928210377731899E+000
-2.5273824E-001	1.931155157585930E+000
-2.5180975E-001	1.934352421926130E+000
-2.5084198E-001	1.937033872881022E+000
-2.4979195E-001	1.940439022525592E+000
-2.4875721E-001	1.943205277952877E+000
-2.4773772E-001	1.946847539185130E+000
-2.4679080E-001	1.949224141736829E+000
-2.4575390E-001	1.952220247575532E+000
-2.4476287E-001	1.954450331172403E+000
-2.4380425E-001	1.958528921008103E+000
-2.4282935E-001	1.960722857762711E+000
-2.4182063E-001	1.963788078614961E+000
-2.4077718E-001	1.966339201011035E+000
-2.3977888E-001	1.969992022320120E+000
-2.3874140E-001	1.972906676155556E+000
-2.3776348E-001	1.976221286864181E+000
-2.3679468E-001	1.979029364688863E+000
-2.3575786E-001	1.982116652307688E+000
-2.3474152E-001	1.985135956218951E+000
-2.3378010E-001	1.987530492350764E+000
-2.3280650E-001	1.990756220287739E+000
-2.3179530E-001	1.993838356876807E+000
-2.3081979E-001	1.995580892299612E+000
-2.2972450E-001	1.999613618685135E+000
-2.2878371E-001	2.002655487645551E+000
-2.2779606E-001	2.005063299403154E+000
-2.2678739E-001	2.008285258379255E+000
-2.2587951E-001	2.010467720528450E+000
-2.2471352E-001	2.013807692313073E+000
-2.2379704E-001	2.016305176196269E+000
-2.2283800E-001	2.019431152001580E+000
-2.2172247E-001	2.022175729066007E+000
-2.2083341E-001	2.025266823669270E+000
-2.1979970E-001	2.027786548490877E+000
-2.1877389E-001	2.030810394577927E+000
-2.1780315E-001	2.033453941069268E+000
-2.1670222E-001	2.036985189274500E+000
-2.1586451E-001	2.039400608934709E+000
-2.1480833E-001	2.041936196110868E+000
-2.1373540E-001	2.045001925969565E+000
-2.1272083E-001	2.047962358956887E+000
-2.1172762E-001	2.049787101370317E+000
-2.1087085E-001	2.053180658982861E+000
-2.0974658E-001	2.055727045325700E+000
-2.0875953E-001	2.059473239437288E+000
-2.0774110E-001	2.061067632502986E+000
-2.0677847E-001	2.063957024911943E+000
-2.0575221E-001	2.067218362457226E+000
-2.0476538E-001	2.069669067859643E+000
-2.0375182E-001	2.072726961054643E+000
-2.0279963E-001	2.074009467054289E+000
-2.0173578E-001	2.075863134529857E+000
-2.0082584E-001	2.080137040653300E+000
-1.9975728E-001	2.082882218062888E+000
-1.9882157E-001	2.085579102513965E+000
-1.9782844E-001	2.089171706939474E+000
-1.9679257E-001	2.091214466426113E+000
-1.9585773E-001	2.094308842387471E+000
-1.9478270E-001	2.096732593178915E+000
-1.9381069E-001	2.099804100063103E+000
-1.9274388E-001	2.102088377155631E+000
-1.9178624E-001	2.105596781867840E+000
-1.9077834E-001	2.107507196013572E+000
-1.8973425E-001	2.110550386486233E+000
-1.8872094E-001	2.112538641382223E+000
-1.8783739E-001	2.115828910635578E+000
-1.8686585E-001	2.118243407320097E+000
-1.8580861E-001	2.120224320130696E+000
-1.8479145E-001	2.123763512130129E+000
-1.8373528E-001	2.126019321382060E+000
-1.8284668E-001	2.128771796114700E+000
-1.8181999E-001	2.131220880481933E+000
-1.8078926E-001	2.133403762899052E+000
-1.7982958E-001	2.135767518274253E+000
-1.7877021E-001	2.138482148172688E+000
-1.7779960E-001	2.141716519535596E+000
-1.7686130E-001	2.144358188465798E+000
-1.7581253E-001	2.147193885787777E+000
-1.7480128E-001	2.150224924354473E+000
-1.7380624E-001	2.152101208214397E+000
-1.7277741E-001	2.154504485428333E+000
-1.7183532E-001	2.157221314870504E+000
-1.7080165E-001	2.159247894529948E+000
-1.6980721E-001	2.162097488840423E+000
-1.6879417E-001	2.164314110718372E+000
-1.6783103E-001	2.166885433649586E+000
-1.6686457E-001	2.170100657476322E+000
-1.6581084E-001	2.173693099580632E+000
-1.6474225E-001	2.175611799237913E+000
-1.6374777E-001	2.177369913845148E+000
-1.6275433E-001	2.180820529916438E+000
-1.6173682E-001	2.183452608408749E+000
-1.6068870E-001	2.185334853000107E+000
-1.5977399E-001	2.187335081002416E+000
-1.5880330E-001	2.191087659862305E+000
-1.5782581E-001	2.193305800082520E+000
-1.5678489E-001	2.196127107713771E+000
-1.5579426E-001	2.197315272633674E+000
-1.5473109E-001	2.200556560522983E+000
-1.5374830E-001	2.202569079396802E+000
-1.5284781E-001	2.205107502087401E+000
-1.5185890E-001	2.208346423175595E+000
-1.5078433E-001	2.209967532226983E+000
-1.4977857E-001	2.213351534472576E+000
-1.4880681E-001	2.215496382503595E+000
-1.4785096E-001	2.217506388386472E+000
-1.4679776E-001	2.220494821667671E+000
-1.4584020E-001	2.223008462676297E+000
-1.4475133E-001	2.225640230674180E+000
-1.4382966E-001	2.227482970941956E+000
-1.4271174E-001	2.229826260496068E+000
-1.4177679E-001	2.232951148147297E+000
-1.4079328E-001	2.234099576870594E+000
-1.3980180E-001	2.237033824677827E+000
-1.3879362E-001	2.240008095154710E+000
-1.3789348E-001	2.241845866596261E+000
-1.3679764E-001	2.245075423408434E+000
-1.3581765E-001	2.246994655423613E+000
-1.3480026E-001	2.249670217710516E+000
-1.3383465E-001	2.251997298388567E+000
-1.3272899E-001	2.253742268718845E+000
-1.3177001E-001	2.257417915595911E+000
-1.3081396E-001	2.259380284282898E+000
-1.2987819E-001	2.261703061144512E+000
-1.2888613E-001	2.262789801590969E+000
-1.2790866E-001	2.266190031060464E+000
-1.2673037E-001	2.268589951555624E+000
-1.2575322E-001	2.271609961434642E+000
-1.2483663E-001	2.273458945530438E+000
-1.2384104E-001	2.275634752836775E+000
-1.2286955E-001	2.277525661444224E+000
-1.2181167E-001	2.280521337908727E+000
-1.2077909E-001	2.282810922772327E+000
-1.1988132E-001	2.285058994260101E+000
-1.1879480E-001	2.287693773154867E+000
-1.1780735E-001	2.290024332234253E+000
-1.1675733E-001	2.293013597804078E+000
-1.1582354E-001	2.294645381470517E+000
-1.1479620E-001	2.296626857465405E+000
-1.1386731E-001	2.298468132813772E+000
-1.1281808E-001	2.300705950332155E+000
-1.1180584E-001	2.304237357444236E+000
-1.1086166E-001	2.305172841030135E+000
-1.0985126E-001	2.307611974736059E+000
-1.0886852E-001	2.310743320043446E+000
-1.0779960E-001	2.312572302641705E+000
-1.0675520E-001	2.314747407914581E+000
-1.0578185E-001	2.316963675673363E+000
-1.0481264E-001	2.319141612008761E+000
-1.0375315E-001	2.322269707779657E+000
-1.0277898E-001	2.323858061598411E+000
-1.0184476E-001	2.326533555156661E+000
-1.0082558E-001	2.328508133101802E+000
-9.9888310E-002	2.331005116855668E+000
-9.8807313E-002	2.332572881270341E+000
-9.7734019E-002	2.334520571099516E+000
-9.6831337E-002	2.336476269971442E+000
-9.5812067E-002	2.339173371593176E+000
-9.4762988E-002	2.341278995746819E+000
-9.3873017E-002	2.343764234196257E+000
-9.2847578E-002	2.345989228122768E+000
-9.1864564E-002	2.348253679336700E+000
-9.0816468E-002	2.350469802540758E+000
-8.9932740E-002	2.352986062842387E+000
-8.8850625E-002	2.354111404209020E+000
-8.7777533E-002	2.356531568147513E+000
-8.6816810E-002	2.358864853227573E+000
-8.5773215E-002	2.360879706499915E+000
-8.4810078E-002	2.363283188530701E+000
-8.3828352E-002	2.364257646931542E+000
-8.2886249E-002	2.368501855937104E+000
-8.1840716E-002	2.368905068547629E+000
-8.0842443E-002	2.372174706172054E+000
-7.9809032E-002	2.373796969831098E+000
-7.8846127E-002	2.376062409469371E+000
-7.7838078E-002	2.377489136600950E+000
-7.6803789E-002	2.379549329526192E+000
-7.5873576E-002	2.382551854407343E+000
-7.4834369E-002	2.384508304849810E+000
-7.3882870E-002	2.386595006798524E+000
-7.2815552E-002	2.388664787566228E+000
-7.1807735E-002	2.391866471480443E+000
-7.0762224E-002	2.393089567029463E+000
-6.9888406E-002	2.394932322756013E+000
-6.8800613E-002	2.397859840757320E+000
-6.7796722E-002	2.399215646243235E+000
-6.6776492E-002	2.401248182135596E+000
-6.5817893E-002	2.403766075494104E+000
-6.4850606E-002	2.405146406139266E+000
-6.3815407E-002	2.407135213690772E+000
-6.2792316E-002	2.409327295367362E+000
-6.1805051E-002	2.412719790208321E+000
-6.0797472E-002	2.413701460317327E+000
-5.9844170E-002	2.416824302187660E+000
-5.8781199E-002	2.417791882436010E+000
-5.7819199E-002	2.420181933652461E+000
-5.6764297E-002	2.421314218805895E+000
-5.5801611E-002	2.423754406225065E+000
-5.4765414E-002	2.425422385886868E+000
-5.3787503E-002	2.427927295918817E+000
-5.2851677E-002	2.430284287101022E+000
-5.1806871E-002	2.432148238023121E+000
-5.0801177E-002	2.433636200924722E+000
-4.9807359E-002	2.437765084914915E+000
-4.8790634E-002	2.439309562797892E+000
-4.7853030E-002	2.439865152041119E+000
-4.6842244E-002	2.442123820744271E+000
-4.5846939E-002	2.443800485796395E+000
-4.4849649E-002	2.445686398502890E+000
-4.3751333E-002	2.448142331231523E+000
-4.2860396E-002	2.449819256034154E+000
-4.1806012E-002	2.450861890855347E+000
-4.0800638E-002	2.452915497952034E+000
-3.9787736E-002	2.454088724873689E+000
-3.8784489E-002	2.456566838604639E+000
-3.7784614E-002	2.458586739169238E+000
-3.6854856E-002	2.460016193765171E+000
-3.5842258E-002	2.464190658593736E+000
-3.4834344E-002	2.464886118968323E+000
-3.3875532E-002	2.467930333757845E+000
-3.2858409E-002	2.469144884347223E+000
-3.1863287E-002	2.470950588859899E+000
-3.0841047E-002	2.473236336200324E+000
-2.9845437E-002	2.474341388240236E+000
-2.8783197E-002	2.476892295810913E+000
-2.7903503E-002	2.479005102758065E+000
-2.6807144E-002	2.479677496049710E+000
-2.5807476E-002	2.482033542736822E+000
-2.4826597E-002	2.484604644554633E+000
-2.3891615E-002	2.486010779209395E+000
-2.2785718E-002	2.487264800126908E+000
-2.1838995E-002	2.489172734044221E+000
-2.0842563E-002	2.491078780723221E+000
-1.9778177E-002	2.493105398835955E+000
-1.8873664E-002	2.494616721515305E+000
-1.7874662E-002	2.496520438854482E+000
-1.6757481E-002	2.498423377396882E+000
-1.5866125E-002	2.499482360151077E+000
-1.4899885E-002	2.502600983053128E+000
-1.3809759E-002	2.503852118496535E+000
-1.2814670E-002	2.506215820709872E+000
-1.1826760E-002	2.507109151607881E+000
-1.0842732E-002	2.510103869217410E+000
-9.9000391E-003	2.510731453972833E+000
-8.8680675E-003	2.513206302001390E+000
-7.9221632E-003	2.514304080495130E+000
-6.9162534E-003	2.516556960565072E+000
-5.8979550E-003	2.517486017760710E+000
-4.7612512E-003	2.519904112650295E+000
-3.8696795E-003	2.522358843021919E+000
-2.8288928E-003	2.523045474412235E+000
-1.8292262E-003	2.525157881279789E+000
-8.5768237E-004	2.526990356544658E+000
1.4395056E-004	2.529309581308802E+000
1.1443757E-003	2.530377468301189E+000
2.1301312E-003	2.532647625991588E+000
3.0482670E-003	2.533545769874930E+000
4.1750385E-003	2.536344335862889E+000
5.1947348E-003	2.540413876926468E+000
6.1058900E-003	2.540702182290097E+000
6.7814495E-003	2.541986475388209E+000
6.6974470E-003	2.541268110275269E+000