EC-Lab ASCII FILE
Nb header lines : 63                          

Linear Sweep Voltammetry

Run on channel : 6 (SN 13765)
User : 
Electrode connection : standard
Potential control : Ewe
Ewe ctrl range : min = -2.50 V, max = 2.50 V
Ewe,I filtering : <None>
Safety Limits :
	Do not start on E overload
Channel : Floating
Acquisition started on : 07/13/2026 15:39:00.250
Technique started on : 07/13/2026 15:39:01.247
Loaded Setting File :  C:\Users\EEM-620\Desktop\Wade\20260630\LSV 1mg MoS2 1_C06.mpr
Saved on :
	File : N719_0713-b-2_C06.mpr
	Directory : C:\Users\EEM-620\Desktop\Wade\abao\20260713\
	Host : 192.109.209.200
Device : VSP-300 (SN 0025)
Address : 192.109.209.129
EC-LAB for windows v11.62 (software)
Internet server v27.00 (firmware)
Command interpretor v12.02 (firmware)
Electrode material : Au/Pd
Initial state : 
Electrolyte : NaCl (0.2M)
Comments : Fe(CN)63-/Fe(CN)64- 5.10-3 M
Cable : ULC
Reference electrode : SCE Saturated Calomel Electrode (0.241 V)
Electrode surface area : 0.001 cm2
Characteristic mass : 0.001 g
Equivalent Weight : 0.000 g/eq.
Density : 0.000 g/cm3
Volume (V) : 0.001 cm3
Cycle Definition : Charge/Discharge alternance
tR (h:m:s)          0:00:5.0000         
dER/dt (mV/h)       0.0                 
dER (mV)            0                   
dtR (s)             0.0500              
dE/dt               10.000              
dE/dt unit          mV/s                
Ei (V)              -0.800              
vs.                 Ref                 
EL (V)              0.010               
vs.                 Ref                 
record              <I>                 
dI                  0.000               
unit dI             uA                  
tI (s)              0.0000              
step percent        50                  
N                   10                  
E range min (V)     -2.500              
E range max (V)     2.500               
I Range             Auto                
I Range min         Unset               
I Range max         Unset               
I Range init        Unset               
Bandwidth           8                   

Ewe/V	<I>/mA	
-6.0747498E-001	0.000000000000000E+000
-6.0653567E-001	0.000000000000000E+000
-6.0760480E-001	0.000000000000000E+000
-6.0778046E-001	0.000000000000000E+000
-6.0757804E-001	0.000000000000000E+000
-6.0715038E-001	0.000000000000000E+000
-6.0764676E-001	0.000000000000000E+000
-6.0683346E-001	0.000000000000000E+000
-6.0681444E-001	0.000000000000000E+000
-6.0686404E-001	0.000000000000000E+000
-6.0708547E-001	0.000000000000000E+000
-6.0705113E-001	0.000000000000000E+000
-6.0716951E-001	0.000000000000000E+000
-6.0740626E-001	0.000000000000000E+000
-6.0685259E-001	0.000000000000000E+000
-6.0732222E-001	0.000000000000000E+000
-6.0660821E-001	0.000000000000000E+000
-6.0693657E-001	0.000000000000000E+000
-6.0766971E-001	0.000000000000000E+000
-6.0682964E-001	0.000000000000000E+000
-6.0707021E-001	0.000000000000000E+000
-6.0698622E-001	0.000000000000000E+000
-6.0714275E-001	0.000000000000000E+000
-6.0700154E-001	0.000000000000000E+000
-6.0711604E-001	0.000000000000000E+000
-6.0730696E-001	0.000000000000000E+000
-6.0697860E-001	0.000000000000000E+000
-6.0727644E-001	0.000000000000000E+000
-6.0737950E-001	0.000000000000000E+000
-6.0732603E-001	0.000000000000000E+000
-6.0695952E-001	0.000000000000000E+000
-6.0707027E-001	0.000000000000000E+000
-6.0718477E-001	0.000000000000000E+000
-6.0773081E-001	0.000000000000000E+000
-6.0774225E-001	0.000000000000000E+000
-6.0750550E-001	0.000000000000000E+000
-6.0742915E-001	0.000000000000000E+000
-6.0701299E-001	0.000000000000000E+000
-6.0760480E-001	0.000000000000000E+000
-6.0721534E-001	0.000000000000000E+000
-6.0700530E-001	0.000000000000000E+000
-6.0715806E-001	0.000000000000000E+000
-6.0734516E-001	0.000000000000000E+000
-6.0722679E-001	0.000000000000000E+000
-6.0692894E-001	0.000000000000000E+000
-6.0708553E-001	0.000000000000000E+000
-6.0697860E-001	0.000000000000000E+000
-6.0716188E-001	0.000000000000000E+000
-6.0728407E-001	0.000000000000000E+000
-6.0678005E-001	0.000000000000000E+000
-6.0765821E-001	0.000000000000000E+000
-6.0745972E-001	0.000000000000000E+000
-6.0720003E-001	0.000000000000000E+000
-6.0726494E-001	0.000000000000000E+000
-6.0736424E-001	0.000000000000000E+000
-6.0721916E-001	0.000000000000000E+000
-6.0716951E-001	0.000000000000000E+000
-6.0706258E-001	0.000000000000000E+000
-6.0655093E-001	0.000000000000000E+000
-6.0728788E-001	0.000000000000000E+000
-6.0671890E-001	0.000000000000000E+000
-6.1253804E-001	0.000000000000000E+000
-6.1294657E-001	0.000000000000000E+000
-7.8924477E-001	-1.516946709674340E+000
-7.8880346E-001	-1.508761875044979E+000
-7.8766161E-001	-1.495862606085006E+000
-7.8675008E-001	-1.484372400575216E+000
-7.8572899E-001	-1.473507047440465E+000
-7.8478074E-001	-1.463813444530524E+000
-7.8380966E-001	-1.454617311833076E+000
-7.8259200E-001	-1.445237713343143E+000
-7.8181350E-001	-1.436334154948046E+000
-7.8078741E-001	-1.427231700470049E+000
-7.7985096E-001	-1.418428139589807E+000
-7.7880341E-001	-1.409582696303183E+000
-7.7777833E-001	-1.401434493699568E+000
-7.7680111E-001	-1.393273569225043E+000
-7.7583832E-001	-1.384030573483972E+000
-7.7479142E-001	-1.375440706533417E+000
-7.7385676E-001	-1.366814500809203E+000
-7.7283579E-001	-1.358306991143360E+000
-7.7182740E-001	-1.349192273837552E+000
-7.7083564E-001	-1.340463656783374E+000
-7.6978588E-001	-1.331698805507688E+000
-7.6883334E-001	-1.323530439563368E+000
-7.6770526E-001	-1.314695381957291E+000
-7.6682055E-001	-1.305761195167344E+000
-7.6581335E-001	-1.297595836912036E+000
-7.6491076E-001	-1.289434404622567E+000
-7.6389337E-001	-1.280893839757756E+000
-7.6281601E-001	-1.271790004024906E+000
-7.6182133E-001	-1.263204490522977E+000
-7.6077890E-001	-1.254413011311379E+000
-7.5984520E-001	-1.245708308286133E+000
-7.5877935E-001	-1.237073392065875E+000
-7.5784779E-001	-1.228769980095048E+000
-7.5678241E-001	-1.220487710226469E+000
-7.5580341E-001	-1.212238451822897E+000
-7.5477195E-001	-1.203658605063406E+000
-7.5383246E-001	-1.194901309112144E+000
-7.5279909E-001	-1.186391265717923E+000
-7.5182509E-001	-1.178059565524262E+000
-7.5082058E-001	-1.169714789800928E+000
-7.4982345E-001	-1.161117051072692E+000
-7.4879718E-001	-1.152756001110431E+000
-7.4777597E-001	-1.143642667539934E+000
-7.4680126E-001	-1.134793529631914E+000
-7.4585044E-001	-1.126093047636529E+000
-7.4491358E-001	-1.117636107366687E+000
-7.4380279E-001	-1.108743688160624E+000
-7.4285769E-001	-1.100152155867336E+000
-7.4184662E-001	-1.091616534551349E+000
-7.4084574E-001	-1.083103281618273E+000
-7.3984063E-001	-1.074445734283437E+000
-7.3892367E-001	-1.065953841907232E+000
-7.3778683E-001	-1.057223558563877E+000
-7.3674929E-001	-1.049206479280082E+000
-7.3580211E-001	-1.041126029671684E+000
-7.3476082E-001	-1.031711738418654E+000
-7.3383242E-001	-1.023532393491928E+000
-7.3289728E-001	-1.015171553410385E+000
-7.3184085E-001	-1.006498956845865E+000
-7.3089993E-001	-9.978593807253553E-001
-7.2982275E-001	-9.894917797289899E-001
-7.2876418E-001	-9.810326460886856E-001
-7.2781914E-001	-9.727567242527506E-001
-7.2680706E-001	-9.646475674355202E-001
-7.2571003E-001	-9.558628939644054E-001
-7.2481143E-001	-9.475299016469050E-001
-7.2387952E-001	-9.390154121371062E-001
-7.2285622E-001	-9.298718755167990E-001
-7.2175199E-001	-9.214867265136135E-001
-7.2088289E-001	-9.132805102912744E-001
-7.1981281E-001	-9.048636311458171E-001
-7.1884584E-001	-8.963513622681276E-001
-7.1775025E-001	-8.877027827107291E-001
-7.1682250E-001	-8.792757975558403E-001
-7.1587795E-001	-8.706895467583813E-001
-7.1476477E-001	-8.622963733185696E-001
-7.1387374E-001	-8.538102001227736E-001
-7.1288055E-001	-8.454644319911786E-001
-7.1181673E-001	-8.371492826674469E-001
-7.1083695E-001	-8.289290825249989E-001
-7.0975602E-001	-8.212485559008744E-001
-7.0879775E-001	-8.124596719013155E-001
-7.0779800E-001	-8.041010686644796E-001
-7.0689452E-001	-7.960937725449071E-001
-7.0579386E-001	-7.877569535913054E-001
-7.0486689E-001	-7.794645923983152E-001
-7.0381123E-001	-7.713300773390976E-001
-7.0285678E-001	-7.629698793973816E-001
-7.0183736E-001	-7.546877191160566E-001
-7.0080757E-001	-7.464570113354281E-001
-6.9983208E-001	-7.383064771689298E-001
-6.9879550E-001	-7.304260313372932E-001
-6.9789654E-001	-7.221290449853273E-001
-6.9694275E-001	-7.137545631019648E-001
-6.9581747E-001	-7.056006948567131E-001
-6.9479567E-001	-6.968052641109193E-001
-6.9390172E-001	-6.889240165989430E-001
-6.9284767E-001	-6.812970188480856E-001
-6.9180632E-001	-6.728554462531129E-001
-6.9083202E-001	-6.642013697490565E-001
-6.8976587E-001	-6.560855516818938E-001
-6.8871713E-001	-6.479331762522555E-001
-6.8798679E-001	-6.395731759430099E-001
-6.8686247E-001	-6.312258998966875E-001
-6.8586147E-001	-6.232255005743124E-001
-6.8483490E-001	-6.152455218274278E-001
-6.8382078E-001	-6.071811214227356E-001
-6.8289363E-001	-5.988113917103755E-001
-6.8189555E-001	-5.907509373156010E-001
-6.8084460E-001	-5.824029545679128E-001
-6.7984945E-001	-5.739941502385015E-001
-6.7874992E-001	-5.655850681855705E-001
-6.7795295E-001	-5.577714319720304E-001
-6.7688209E-001	-5.493750681664240E-001
-6.7590678E-001	-5.411513994827324E-001
-6.7481071E-001	-5.333157651540290E-001
-6.7382836E-001	-5.251193643457999E-001
-6.7289793E-001	-5.169166267884004E-001
-6.7176688E-001	-5.090938086311025E-001
-6.7085612E-001	-5.010137509809929E-001
-6.6988510E-001	-4.926968739126552E-001
-6.6891420E-001	-4.846352743743747E-001
-6.6789252E-001	-4.765165169896448E-001
-6.6683143E-001	-4.680125614007293E-001
-6.6576880E-001	-4.601056804811505E-001
-6.6487747E-001	-4.518700468478278E-001
-6.6390628E-001	-4.433309510136145E-001
-6.6253036E-001	-4.340720334676664E-001
-6.6156369E-001	-4.258862361901703E-001
-6.6048735E-001	-4.177525608489916E-001
-6.5963340E-001	-4.097293523588661E-001
-6.5864068E-001	-4.016420484696157E-001
-6.5768832E-001	-3.936902059035168E-001
-6.5664339E-001	-3.858090338676600E-001
-6.5555614E-001	-3.769277456002751E-001
-6.5471286E-001	-3.687522222322421E-001
-6.5356207E-001	-3.609771573985068E-001
-6.5277445E-001	-3.530622530641523E-001
-6.5150124E-001	-3.449383007914375E-001
-6.5063173E-001	-3.369898172095422E-001
-6.4972913E-001	-3.289727252231678E-001
-6.4870864E-001	-3.208589313068861E-001
-6.4760786E-001	-3.127250635513559E-001
-6.4650142E-001	-3.047376936526551E-001
-6.4571023E-001	-2.966223670238696E-001
-6.4456809E-001	-2.887298447568113E-001
-6.4364302E-001	-2.806239358528879E-001
-6.4260310E-001	-2.726051608031561E-001
-6.4160067E-001	-2.646491611573909E-001
-6.4057881E-001	-2.564273484534140E-001
-6.3979566E-001	-2.484810610336288E-001
-6.3872761E-001	-2.405377245540268E-001
-6.3759291E-001	-2.322969296602186E-001
-6.3665724E-001	-2.244826144780272E-001
-6.3561827E-001	-2.165554665695621E-001
-6.3476968E-001	-2.085861279456708E-001
-6.3374138E-001	-2.007184839565994E-001
-6.3267028E-001	-1.924132465649353E-001
-6.3150364E-001	-1.845899737888468E-001
-6.3062578E-001	-1.761348290817337E-001
-6.2959570E-001	-1.681175807622972E-001
-6.2869334E-001	-1.604802501560361E-001
-6.2750864E-001	-1.526608192361889E-001
-6.2668675E-001	-1.449152925362132E-001
-6.2560439E-001	-1.369082973925053E-001
-6.2464237E-001	-1.290328097357243E-001
-6.2355620E-001	-1.211361999532605E-001
-6.2269866E-001	-1.131440747563763E-001
-6.2158132E-001	-1.053463983246021E-001
-6.2055302E-001	-9.730494267170386E-002
-6.1956233E-001	-8.945531398920226E-002
-6.1844760E-001	-8.141376842158277E-002
-6.1775237E-001	-7.357673834104683E-002
-6.1658782E-001	-6.578280061000466E-002
-6.1568737E-001	-5.791218351158856E-002
-6.1453253E-001	-4.983649201724838E-002
-6.1357582E-001	-4.105014118622652E-002
-6.1242723E-001	-3.205190861977092E-002
-6.1121845E-001	-2.432450672163106E-002
-6.1031717E-001	-1.638494778631458E-002
-6.0939038E-001	-8.488767707064998E-003
-6.0824138E-001	-5.313343612687220E-004
-6.0741448E-001	7.469885268990201E-003
-6.0634464E-001	1.546532638517592E-002
-6.0521805E-001	2.403310798887304E-002
-6.0432029E-001	3.132949646182903E-002
-6.0331959E-001	3.903118093256597E-002
-6.0235071E-001	4.685472032421195E-002
-6.0123092E-001	5.481068878779549E-002
-6.0020930E-001	6.271454004026095E-002
-5.9916461E-001	7.044330184106457E-002
-5.9820741E-001	7.820655545219757E-002
-5.9708917E-001	8.598548994355659E-002
-5.9632355E-001	9.404582453512172E-002
-5.9514070E-001	1.016271350111951E-001
-5.9401864E-001	1.105456892971808E-001
-5.9293550E-001	1.191487557910111E-001
-5.9189200E-001	1.268142610098477E-001
-5.9104216E-001	1.345614023558470E-001
-5.9009910E-001	1.422047934460424E-001
-5.8900684E-001	1.499449169539192E-001
-5.8794367E-001	1.580353067032708E-001
-5.8692247E-001	1.656247412923866E-001
-5.8598918E-001	1.735080593196605E-001
-5.8491701E-001	1.811597428509533E-001
-5.8396566E-001	1.889620782221071E-001
-5.8295399E-001	1.968284598379224E-001
-5.8180988E-001	2.047420876496689E-001
-5.8082914E-001	2.120017261002921E-001
-5.8000058E-001	2.197295782259765E-001
-5.7895285E-001	2.274756832706935E-001
-5.7792467E-001	2.354653402473095E-001
-5.7709163E-001	2.432282306943772E-001
-5.7597798E-001	2.510093193811946E-001
-5.7507777E-001	2.586555178449662E-001
-5.7407266E-001	2.663815891439161E-001
-5.7301211E-001	2.738127132574644E-001
-5.7204193E-001	2.818356121165881E-001
-5.7098663E-001	2.893834124767697E-001
-5.6992644E-001	2.970866589686991E-001
-5.6888062E-001	3.047220201266043E-001
-5.6802899E-001	3.127799308686336E-001
-5.6687534E-001	3.202591764699680E-001
-5.6596726E-001	3.281657294266758E-001
-5.6504029E-001	3.362531063871253E-001
-5.6398261E-001	3.432520647405160E-001
-5.6312245E-001	3.506514408315209E-001
-5.6182355E-001	3.581333652621623E-001
-5.6084287E-001	3.656984505509042E-001
-5.5988348E-001	3.733340789115531E-001
-5.5902624E-001	3.806148030346730E-001
-5.5796945E-001	3.883822683466889E-001
-5.5692410E-001	3.954454109210670E-001
-5.5591094E-001	4.026826682190117E-001
-5.5492246E-001	4.105360945551713E-001
-5.5401701E-001	4.180739482657772E-001
-5.5296773E-001	4.256711150347092E-001
-5.5198914E-001	4.334407835844889E-001
-5.5095714E-001	4.414437263514168E-001
-5.5009550E-001	4.493273589930205E-001
-5.4896504E-001	4.570639292123131E-001
-5.4795367E-001	4.648284825185920E-001
-5.4683208E-001	4.721567452758055E-001
-5.4598892E-001	4.796648447022402E-001
-5.4497451E-001	4.874529476381007E-001
-5.4397082E-001	4.952695260354618E-001
-5.4283881E-001	5.029395802153483E-001
-5.4193705E-001	5.103048190336539E-001
-5.4092568E-001	5.181667011375808E-001
-5.3989571E-001	5.258389278832425E-001
-5.3918386E-001	5.336320431282142E-001
-5.3807491E-001	5.407278515180385E-001
-5.3687823E-001	5.485495901494122E-001
-5.3614450E-001	5.561046752112873E-001
-5.3488672E-001	5.638835519798269E-001
-5.3398508E-001	5.707628890458079E-001
-5.3315669E-001	5.787343379386054E-001
-5.3193396E-001	5.861350360785615E-001
-5.3092915E-001	5.938118011863134E-001
-5.2998537E-001	6.010378042442968E-001
-5.2897477E-001	6.086621897517031E-001
-5.2805012E-001	6.161954454663725E-001
-5.2683038E-001	6.236874060360389E-001
-5.2586639E-001	6.309017935027459E-001
-5.2496153E-001	6.384626213047255E-001
-5.2381927E-001	6.459914556945918E-001
-5.2283990E-001	6.534528733532319E-001
-5.2194685E-001	6.606119379953093E-001
-5.2084732E-001	6.678126897938803E-001
-5.2000451E-001	6.753468062139563E-001
-5.1884121E-001	6.830260835725968E-001
-5.1794225E-001	6.902898346522317E-001
-5.1692009E-001	6.975844872260559E-001
-5.1566976E-001	7.043956108391303E-001
-5.1482779E-001	7.121175593800002E-001
-5.1391655E-001	7.194662416291706E-001
-5.1285082E-001	7.267475595214865E-001
-5.1191080E-001	7.337198006334145E-001
-5.1098979E-001	7.411302785140483E-001
-5.0997692E-001	7.483682112975263E-001
-5.0884414E-001	7.552379139319605E-001
-5.0798219E-001	7.626788100866042E-001
-5.0694180E-001	7.700295991919659E-001
-5.0585759E-001	7.772811159353568E-001
-5.0504690E-001	7.847508303686421E-001
-5.0386399E-001	7.923761210231852E-001
-5.0281310E-001	7.997814732845185E-001
-5.0195646E-001	8.072044670470966E-001
-5.0090438E-001	8.144635756810494E-001
-4.9988896E-001	8.220240279204329E-001
-4.9889752E-001	8.292282091860770E-001
-4.9811345E-001	8.368399725468082E-001
-4.9700695E-001	8.441208002192030E-001
-4.9594146E-001	8.505570569230834E-001
-4.9498388E-001	8.578884171115071E-001
-4.9393153E-001	8.649584900725706E-001
-4.9312288E-001	8.716197427176304E-001
-4.9195343E-001	8.787418859148524E-001
-4.9081880E-001	8.858942094224460E-001
-4.8981181E-001	8.930490690488986E-001
-4.8886722E-001	9.000024461635867E-001
-4.8801443E-001	9.070432176449436E-001
-4.8687536E-001	9.137369903425352E-001
-4.8580876E-001	9.212250617091300E-001
-4.8488003E-001	9.283303131079554E-001
-4.8399022E-001	9.349469648743129E-001
-4.8291513E-001	9.418366178870237E-001
-4.8195460E-001	9.483874783353734E-001
-4.8110589E-001	9.552721194922924E-001
-4.7996703E-001	9.621530920267123E-001
-4.7895205E-001	9.684788490421949E-001
-4.7785616E-001	9.747640690593808E-001
-4.7684067E-001	9.811743648239855E-001
-4.7596949E-001	9.881022167506721E-001
-4.7489652E-001	9.950575421529777E-001
-4.7383121E-001	1.001879082371791E+000
-4.7300267E-001	1.008233084703774E+000
-4.7191823E-001	1.015303401069513E+000
-4.7087115E-001	1.022047648137368E+000
-4.6984828E-001	1.029381973698570E+000
-4.6893805E-001	1.036233410515169E+000
-4.6785516E-001	1.043567147519848E+000
-4.6688509E-001	1.049993253192191E+000
-4.6590653E-001	1.057411419572655E+000
-4.6485633E-001	1.064297301901716E+000
-4.6386147E-001	1.070983277280687E+000
-4.6283707E-001	1.078214656561615E+000
-4.6199962E-001	1.085152230604926E+000
-4.6084759E-001	1.091608895556749E+000
-4.5987213E-001	1.100001397646132E+000
-4.5867872E-001	1.108638043204948E+000
-4.5772400E-001	1.116343751953019E+000
-4.5673051E-001	1.122850329235749E+000
-4.5579079E-001	1.130250219531632E+000
-4.5467693E-001	1.137089092040462E+000
-4.5371854E-001	1.144070108869560E+000
-4.5272264E-001	1.151131628702085E+000
-4.5167479E-001	1.158175010284497E+000
-4.5077172E-001	1.165745277233700E+000
-4.4973901E-001	1.171668413750556E+000
-4.4873568E-001	1.179103232854180E+000
-4.4772956E-001	1.186218708201693E+000
-4.4680849E-001	1.193171891763257E+000
-4.4571078E-001	1.199745624153703E+000
-4.4470185E-001	1.206656609558394E+000
-4.4372967E-001	1.212981375555199E+000
-4.4269639E-001	1.220587636363632E+000
-4.4163048E-001	1.227901857346303E+000
-4.4080034E-001	1.234475979309182E+000
-4.3968463E-001	1.241497072908615E+000
-4.3875766E-001	1.248115287196859E+000
-4.3776941E-001	1.255117299899452E+000
-4.3675771E-001	1.261996382778444E+000
-4.3572676E-001	1.268290529372515E+000
-4.3461463E-001	1.275197350293404E+000
-4.3369010E-001	1.281736949941628E+000
-4.3269399E-001	1.288937479119609E+000
-4.3171528E-001	1.295460451658739E+000
-4.3071800E-001	1.303371392466403E+000
-4.2973202E-001	1.309576429150724E+000
-4.2872506E-001	1.315346696421358E+000
-4.2771298E-001	1.322453225100482E+000
-4.2670262E-001	1.328752549158203E+000
-4.2575303E-001	1.334743301495049E+000
-4.2472056E-001	1.341606820485104E+000
-4.2379567E-001	1.348685733284115E+000
-4.2266744E-001	1.354893117579618E+000
-4.2175326E-001	1.361576403594675E+000
-4.2069244E-001	1.368227212517347E+000
-4.1968915E-001	1.374665851930862E+000
-4.1876206E-001	1.381402650227152E+000
-4.1768360E-001	1.387469183929549E+000
-4.1683409E-001	1.393899717895184E+000
-4.1580141E-001	1.400442731601221E+000
-4.1464019E-001	1.407352524499096E+000
-4.1370574E-001	1.414484282374564E+000
-4.1282061E-001	1.420606562108908E+000
-4.1167656E-001	1.427941168210015E+000
-4.1080657E-001	1.434796756947069E+000
-4.0970469E-001	1.441645578515747E+000
-4.0874013E-001	1.448400511647815E+000
-4.0783948E-001	1.455006276215947E+000
-4.0677732E-001	1.461960648220998E+000
-4.0562925E-001	1.469308126993758E+000
-4.0463287E-001	1.475160650411137E+000
-4.0375340E-001	1.481239216747111E+000
-4.0271357E-001	1.487232876320682E+000
-4.0176597E-001	1.493921123079495E+000
-4.0073779E-001	1.499769245170885E+000
-3.9976797E-001	1.506276530938010E+000
-3.9877692E-001	1.512439653769199E+000
-3.9775363E-001	1.518102095082956E+000
-3.9676535E-001	1.524643037192245E+000
-3.9577413E-001	1.530404254239549E+000
-3.9475137E-001	1.536937202430430E+000
-3.9367911E-001	1.542416487441017E+000
-3.9275309E-001	1.549306676044253E+000
-3.9173877E-001	1.555701804243860E+000
-3.9080492E-001	1.561847619574390E+000
-3.8973790E-001	1.568476269561465E+000
-3.8875067E-001	1.574769015665412E+000
-3.8767204E-001	1.581354592961295E+000
-3.8679525E-001	1.586585924270803E+000
-3.8571006E-001	1.592653086891886E+000
-3.8468635E-001	1.598881429268253E+000
-3.8374838E-001	1.604598609071243E+000
-3.8280967E-001	1.611202354508422E+000
-3.8167983E-001	1.617083162621221E+000
-3.8074529E-001	1.622316267758983E+000
-3.7970003E-001	1.628616484502949E+000
-3.7877029E-001	1.635133742734243E+000
-3.7780872E-001	1.640965269563569E+000
-3.7682769E-001	1.646370657340244E+000
-3.7568936E-001	1.651097681787279E+000
-3.7468070E-001	1.655193691560327E+000
-3.7376961E-001	1.661670169896553E+000
-3.7272286E-001	1.668251467380077E+000
-3.7172323E-001	1.674141205295371E+000
-3.7058836E-001	1.678528256714344E+000
-3.6969990E-001	1.684215819600993E+000
-3.6871296E-001	1.690222523278662E+000
-3.6774394E-001	1.695909164569995E+000
-3.6676070E-001	1.701677718016146E+000
-3.6581334E-001	1.707732638275182E+000
-3.6467636E-001	1.713428310498045E+000
-3.6379403E-001	1.719960041571191E+000
-3.6273775E-001	1.725596252966817E+000
-3.6172059E-001	1.731156661278671E+000
-3.6076996E-001	1.737064988352930E+000
-3.5972321E-001	1.742216862738132E+000
-3.5882741E-001	1.747878932290615E+000
-3.5775194E-001	1.753511906594608E+000
-3.5677546E-001	1.758614044498515E+000
-3.5566795E-001	1.763269627811731E+000
-3.5473764E-001	1.768357817793877E+000
-3.5375711E-001	1.773457795381546E+000
-3.5274124E-001	1.777405218669664E+000
-3.5177138E-001	1.781943708235444E+000
-3.5076335E-001	1.787175463029634E+000
-3.4978521E-001	1.791877093966363E+000
-3.4869698E-001	1.796327941269494E+000
-3.4781525E-001	1.801737320367935E+000
-3.4676495E-001	1.807540083648984E+000
-3.4567404E-001	1.812617015744930E+000
-3.4476119E-001	1.818238006421814E+000
-3.4376293E-001	1.822701153931810E+000
-3.4280151E-001	1.828164294395496E+000
-3.4176469E-001	1.832592659802337E+000
-3.4074286E-001	1.839761464960052E+000
-3.3971092E-001	1.843458264050319E+000
-3.3872810E-001	1.847660521390258E+000
-3.3779725E-001	1.853322430065383E+000
-3.3671403E-001	1.859835542824285E+000
-3.3577040E-001	1.864596360811481E+000
-3.3471358E-001	1.870068484986277E+000
-3.3384833E-001	1.875609431949322E+000
-3.3277515E-001	1.880508854709291E+000
-3.3167782E-001	1.885698979651487E+000
-3.3077320E-001	1.891086268103845E+000
-3.2969037E-001	1.895874561534978E+000
-3.2878926E-001	1.901698175403816E+000
-3.2769936E-001	1.906856096947422E+000
-3.2671997E-001	1.912104048386773E+000
-3.2578957E-001	1.917045326144605E+000
-3.2479423E-001	1.922018830582665E+000
-3.2379264E-001	1.926989146128843E+000
-3.2277590E-001	1.932101494460203E+000
-3.2161331E-001	1.937357606256558E+000
-3.2084465E-001	1.942898929119103E+000
-3.1978935E-001	1.947764941111764E+000
-3.1873503E-001	1.953149015803152E+000
-3.1771812E-001	1.958118834981214E+000
-3.1671181E-001	1.962931947023790E+000
-3.1577510E-001	1.967387203883363E+000
-3.1475663E-001	1.973079522726707E+000
-3.1376854E-001	1.978078982344387E+000
-3.1273487E-001	1.982561129458766E+000
-3.1176522E-001	1.987961154569074E+000
-3.1078899E-001	1.993655713895958E+000
-3.0973327E-001	1.998073873912460E+000
-3.0870971E-001	2.003761947430945E+000
-3.0776748E-001	2.008075010638093E+000
-3.0679017E-001	2.013453545945659E+000
-3.0573082E-001	2.018601467763947E+000
-3.0479386E-001	2.023751732397853E+000
-3.0372432E-001	2.028166036914897E+000
-3.0285776E-001	2.032577077547717E+000
-3.0177170E-001	2.037173113796662E+000
-3.0076429E-001	2.042575555267156E+000
-2.9980525E-001	2.047077959058470E+000
-2.9879439E-001	2.052082466987670E+000
-2.9772830E-001	2.056767733836615E+000
-2.9672602E-001	2.061337486185410E+000
-2.9579699E-001	2.066218597318368E+000
-2.9479098E-001	2.071454032703681E+000
-2.9384255E-001	2.076372840890169E+000
-2.9275173E-001	2.081409875246138E+000
-2.9175228E-001	2.086392173060675E+000
-2.9081485E-001	2.090832892391411E+000
-2.8986466E-001	2.095996087296346E+000
-2.8879032E-001	2.101259866522419E+000
-2.8777725E-001	2.105992767821855E+000
-2.8685150E-001	2.110821717419787E+000
-2.8581208E-001	2.115630091340456E+000
-2.8478304E-001	2.121485228615773E+000
-2.8376254E-001	2.126121826131538E+000
-2.8280899E-001	2.131420291684293E+000
-2.8175449E-001	2.135573157281799E+000
-2.8070828E-001	2.140021243857568E+000
-2.7976453E-001	2.145560564542258E+000
-2.7882862E-001	2.149946368954780E+000
-2.7778137E-001	2.155546614664974E+000
-2.7679878E-001	2.159685377445492E+000
-2.7585882E-001	2.163642887439994E+000
-2.7474350E-001	2.169209915110873E+000
-2.7378193E-001	2.174740957717091E+000
-2.7279425E-001	2.178900433359324E+000
-2.7181673E-001	2.183464366589000E+000
-2.7071092E-001	2.188238311420982E+000
-2.6977482E-001	2.193165098627421E+000
-2.6876700E-001	2.197574421928401E+000
-2.6783663E-001	2.202042097570714E+000
-2.6676837E-001	2.208118167188431E+000
-2.6573378E-001	2.211821390183928E+000
-2.6473635E-001	2.215790977356613E+000
-2.6369652E-001	2.220092810414457E+000
-2.6276419E-001	2.225160998264343E+000
-2.6182255E-001	2.229638995119817E+000
-2.6090577E-001	2.235732337942830E+000
-2.5984269E-001	2.238687729163880E+000
-2.5878638E-001	2.242420924206572E+000
-2.5774780E-001	2.247929333536712E+000
-2.5684580E-001	2.251834808886464E+000
-2.5573683E-001	2.255906158023421E+000
-2.5478378E-001	2.260723041439491E+000
-2.5383404E-001	2.265489500688972E+000
-2.5275218E-001	2.270534090973722E+000
-2.5185215E-001	2.274608888559875E+000
-2.5081235E-001	2.280289173027617E+000
-2.4981317E-001	2.282867512493226E+000
-2.4883188E-001	2.287240430988639E+000
-2.4775811E-001	2.292982645236833E+000
-2.4678041E-001	2.299406015486632E+000
-2.4579826E-001	2.302674287723166E+000
-2.4478365E-001	2.307856617330447E+000
-2.4382377E-001	2.312159303713726E+000
-2.4284799E-001	2.317135363490635E+000
-2.4179664E-001	2.321430367452116E+000
-2.4078271E-001	2.326034151017666E+000
-2.3988332E-001	2.330699255493798E+000
-2.3881353E-001	2.334704863528420E+000
-2.3782270E-001	2.339707430590092E+000
-2.3684102E-001	2.345021281643778E+000
-2.3579220E-001	2.350163008051894E+000
-2.3477401E-001	2.352987347101724E+000
-2.3376949E-001	2.357202584329340E+000
-2.3281860E-001	2.361302811790402E+000
-2.3181438E-001	2.366265501413082E+000
-2.3080468E-001	2.370362591820523E+000
-2.2984733E-001	2.373944200299405E+000
-2.2873175E-001	2.379989079855108E+000
-2.2779746E-001	2.383916183415383E+000
-2.2682938E-001	2.388205326265759E+000
-2.2576749E-001	2.392843260257339E+000
-2.2487029E-001	2.397000050116961E+000
-2.2380805E-001	2.401146448044859E+000
-2.2275145E-001	2.406690611331551E+000
-2.2183880E-001	2.410469511097162E+000
-2.2086480E-001	2.415289659467009E+000
-2.1968322E-001	2.419749731818834E+000
-2.1887909E-001	2.423296881778377E+000
-2.1778916E-001	2.427990660899217E+000
-2.1674149E-001	2.433013225871107E+000
-2.1579027E-001	2.436628333879120E+000
-2.1479858E-001	2.441390200897501E+000
-2.1378569E-001	2.445656020056315E+000
-2.1281867E-001	2.450005687371380E+000
-2.1175201E-001	2.454203526178993E+000
-2.1079956E-001	2.458697586147879E+000
-2.0976812E-001	2.464020798554621E+000
-2.0877203E-001	2.468502269574897E+000
-2.0782681E-001	2.473664279061338E+000
-2.0688312E-001	2.478770791505497E+000
-2.0576324E-001	2.482580828169972E+000
-2.0480081E-001	2.486783570161577E+000
-2.0378260E-001	2.491062893956110E+000
-2.0283820E-001	2.495603757599980E+000
-2.0175870E-001	2.500422646050083E+000
-2.0075305E-001	2.504348462902119E+000
-1.9975770E-001	2.509153209350728E+000
-1.9872782E-001	2.513133599526363E+000
-1.9784032E-001	2.516792231851269E+000
-1.9680788E-001	2.522521461049717E+000
-1.9585858E-001	2.526553650421127E+000
-1.9482352E-001	2.528528957700489E+000
-1.9378906E-001	2.532090822855629E+000
-1.9277467E-001	2.535115913660441E+000
-1.9185977E-001	2.538969111818304E+000
-1.9084451E-001	2.542594473946998E+000
-1.8991452E-001	2.544914315972072E+000
-1.8883495E-001	2.547500418161647E+000
-1.8785883E-001	2.551298665503662E+000
-1.8680348E-001	2.556135171817409E+000
-1.8586963E-001	2.560152727970465E+000
-1.8476897E-001	2.564549730055870E+000
-1.8385449E-001	2.568002046258364E+000
-1.8279132E-001	2.572019399664157E+000
-1.8183948E-001	2.576364517763813E+000
-1.8081938E-001	2.580516066264224E+000
-1.7982809E-001	2.584940477821753E+000
-1.7882708E-001	2.589633925093544E+000
-1.7788072E-001	2.593728712338489E+000
-1.7674908E-001	2.598679504460751E+000
-1.7584223E-001	2.602826761426741E+000
-1.7482875E-001	2.607381615715962E+000
-1.7374112E-001	2.612642926198461E+000
-1.7284019E-001	2.616714770043338E+000
-1.7185210E-001	2.621276887651923E+000
-1.7081057E-001	2.625742132189110E+000
-1.6984433E-001	2.629013270415649E+000
-1.6888902E-001	2.632647061311594E+000
-1.6787662E-001	2.636185812453419E+000
-1.6683763E-001	2.640104476776386E+000
-1.6570784E-001	2.644882888801886E+000
-1.6484195E-001	2.648389077848845E+000
-1.6383071E-001	2.652984650598629E+000
-1.6286169E-001	2.655271482949686E+000
-1.6182931E-001	2.658558430495084E+000
-1.6080557E-001	2.663247141573166E+000
-1.5982230E-001	2.666899932646356E+000
-1.5882006E-001	2.670862692373762E+000
-1.5775391E-001	2.674808981793900E+000
-1.5681379E-001	2.679197827266965E+000
-1.5574993E-001	2.683754286280397E+000
-1.5481256E-001	2.687090475802073E+000
-1.5378542E-001	2.690506764761743E+000
-1.5276976E-001	2.695743317681319E+000
-1.5180331E-001	2.699520154959629E+000
-1.5074925E-001	2.702729406440998E+000
-1.4983669E-001	2.705404278856734E+000
-1.4893174E-001	2.708896163437099E+000
-1.4776786E-001	2.712428812655076E+000
-1.4678396E-001	2.715297386602117E+000
-1.4579269E-001	2.719750655746012E+000
-1.4478956E-001	2.724788262912497E+000
-1.4383030E-001	2.728179049436690E+000
-1.4281188E-001	2.732076470774643E+000
-1.4180872E-001	2.734517039282565E+000
-1.4079072E-001	2.738901315739859E+000
-1.3985142E-001	2.742953467148311E+000
-1.3884264E-001	2.747350473153963E+000
-1.3781351E-001	2.750683589114086E+000
-1.3687655E-001	2.752619238915266E+000
-1.3579738E-001	2.757524302351040E+000
-1.3491437E-001	2.761848610032487E+000
-1.3377418E-001	2.765666457513962E+000
-1.3281979E-001	2.769101890689193E+000
-1.3171613E-001	2.775800776702376E+000
-1.3080184E-001	2.778635852590767E+000
-1.2983097E-001	2.780589416107503E+000
-1.2882864E-001	2.783956050596860E+000
-1.2778392E-001	2.788437808277425E+000
-1.2684770E-001	2.791680220914586E+000
-1.2576827E-001	2.795164222518608E+000
-1.2477871E-001	2.798496410802557E+000
-1.2384261E-001	2.802030609988151E+000
-1.2285385E-001	2.805612838378675E+000
-1.2185241E-001	2.808295427649099E+000
-1.2089588E-001	2.812179439891693E+000
-1.1977038E-001	2.815631543872527E+000
-1.1878334E-001	2.818842324393763E+000
-1.1779972E-001	2.821695663670781E+000
-1.1685447E-001	2.825919290659591E+000
-1.1574356E-001	2.828620535356009E+000
-1.1475229E-001	2.831038275682605E+000
-1.1384142E-001	2.834327619936722E+000
-1.1286922E-001	2.837473427461326E+000
-1.1177466E-001	2.839134492531983E+000
-1.1075751E-001	2.843469983173740E+000
-1.0966878E-001	2.846487063866805E+000
-1.0879450E-001	2.849920517868479E+000
-1.0783566E-001	2.851346207713629E+000
-1.0682820E-001	2.857348946543578E+000
-1.0581559E-001	2.861320207792303E+000
-1.0484339E-001	2.862858688389821E+000
-1.0382695E-001	2.867012217379219E+000
-1.0278385E-001	2.871855088682096E+000
-1.0179362E-001	2.876615652607548E+000
-1.0074987E-001	2.880403355785582E+000
-9.9835902E-002	2.884399668486029E+000
-9.8911472E-002	2.885254128111727E+000
-9.7870119E-002	2.884782759060347E+000
-9.6884154E-002	2.886921006496294E+000
-9.5852792E-002	2.888188041746631E+000
-9.4771668E-002	2.890877117574782E+000
-9.3848191E-002	2.892015099801398E+000
-9.2741951E-002	2.894991943681674E+000
-9.1763780E-002	2.897592531199404E+000
-9.0802684E-002	2.900109348473730E+000
-8.9781925E-002	2.903194604372537E+000
-8.8903241E-002	2.905744533309718E+000
-8.7819114E-002	2.907163744171470E+000
-8.6814679E-002	2.911254417565135E+000
-8.5855685E-002	2.914575232533700E+000
-8.4828950E-002	2.917640838634071E+000
-8.3804384E-002	2.920597918331623E+000
-8.2839139E-002	2.924928041935587E+000
-8.1738673E-002	2.931595141137088E+000
-8.0815293E-002	2.933698694739078E+000
-7.9789981E-002	2.936591755827379E+000
-7.8799233E-002	2.939197119739326E+000
-7.7844024E-002	2.942205472124957E+000
-7.6754853E-002	2.946425353117462E+000
-7.5815670E-002	2.949574575380026E+000
-7.4739546E-002	2.952046302733592E+000
-7.3786974E-002	2.955312870849539E+000
-7.2803460E-002	2.959898677965001E+000
-7.1781434E-002	2.962619933265223E+000
-7.0878446E-002	2.966060212637675E+000
-6.9823913E-002	2.970773914897887E+000
-6.8710245E-002	2.973621333086932E+000
-6.7920357E-002	2.975834378877360E+000
-6.6840351E-002	2.980145798789124E+000
-6.5782249E-002	2.983835327404506E+000
-6.4785995E-002	2.986950509702055E+000
-6.3962415E-002	2.989745853399787E+000
-6.2883317E-002	2.993208433466927E+000
-6.1933327E-002	2.996858835704200E+000
-6.0856659E-002	3.000300970342430E+000
-5.9828684E-002	3.004443384155072E+000
-5.8852300E-002	3.006757622895947E+000
-5.7885174E-002	3.010367510495378E+000
-5.6798447E-002	3.017143510006091E+000
-5.5803608E-002	3.017221403333192E+000
-5.4862354E-002	3.020177477211845E+000
-5.3842023E-002	3.023634538882305E+000
-5.2812610E-002	3.027123549533627E+000
-5.1757444E-002	3.029755198845137E+000
-5.0846357E-002	3.033118664942400E+000
-4.9914267E-002	3.036040644762778E+000
-4.8879307E-002	3.039593345037204E+000
-4.7840726E-002	3.042971331764146E+000
-4.6887212E-002	3.046395932478703E+000
-4.5873031E-002	3.049598803122834E+000
-4.4883419E-002	3.052291437438090E+000
-4.3891124E-002	3.056313175018204E+000
-4.2885218E-002	3.058998834479742E+000
-4.1829079E-002	3.062725688827939E+000
-4.0839881E-002	3.065662063382305E+000
-3.9898459E-002	3.069590464510291E+000
-3.8879082E-002	3.072491735535948E+000
-3.7817914E-002	3.075910208677797E+000
-3.6828768E-002	3.079646654151112E+000
-3.5857789E-002	3.082386622899378E+000
-3.4867648E-002	3.086073032959760E+000
-3.3838194E-002	3.089228044229515E+000
-3.2879811E-002	3.093183031958414E+000
-3.1877078E-002	3.099964971895581E+000
-3.0848894E-002	3.100888130565494E+000
-2.9929001E-002	3.102967541340302E+000
-2.8916840E-002	3.106182913537381E+000
-2.7938928E-002	3.109328370955261E+000
-2.6888561E-002	3.112254416038166E+000
-2.5864325E-002	3.115135116709602E+000
-2.4915054E-002	3.119570643537585E+000
-2.3882523E-002	3.123327115549621E+000
-2.2876721E-002	3.127153342520746E+000
-2.1824360E-002	3.130005032376019E+000
-2.0905685E-002	3.133602918555532E+000
-2.0019790E-002	3.137040662544738E+000
-1.8850967E-002	3.140548146985182E+000
-1.7901350E-002	3.142975182550849E+000
-1.6929092E-002	3.145925408160245E+000
-1.5817547E-002	3.148382643858598E+000
-1.4892654E-002	3.152936203227597E+000
-1.3937036E-002	3.156823774730718E+000
-1.2868125E-002	3.160096620519958E+000
-1.1945885E-002	3.163102815563967E+000
-1.0863522E-002	3.167261413953923E+000
-9.8824305E-003	3.169486197056600E+000
-8.7787854E-003	3.172873730988919E+000
-7.8795245E-003	3.177070458178150E+000
-6.8778587E-003	3.182580593007579E+000
-5.9377491E-003	3.182677534968215E+000
-4.8484355E-003	3.186675913907855E+000
-3.9634402E-003	3.189968948011042E+000
-2.9177554E-003	3.193008938079380E+000
-1.8839551E-003	3.196095597412864E+000
-8.8547112E-004	3.199342391557167E+000
8.1913931E-005	3.202949506054582E+000
1.1006773E-003	3.206920483046090E+000
2.0698868E-003	3.209726168049698E+000
3.1136801E-003	3.213159409986034E+000
4.1277343E-003	3.216772647919484E+000
5.0884592E-003	3.219873215865203E+000
6.1338381E-003	3.221897490490221E+000
6.3461643E-003	3.223208705584209E+000
6.7356299E-003	3.224971264600754E+000