EC-Lab ASCII FILE
Nb header lines : 63                          

Linear Sweep Voltammetry

Run on channel : 6 (SN 13765)
User : 
Electrode connection : standard
Potential control : Ewe
Ewe ctrl range : min = -2.50 V, max = 2.50 V
Ewe,I filtering : <None>
Safety Limits :
	Do not start on E overload
Channel : Floating
Acquisition started on : 07/13/2026 15:42:50.256
Technique started on : 07/13/2026 15:42:51.253
Loaded Setting File :  C:\Users\EEM-620\Desktop\Wade\20260630\LSV 1mg MoS2 1_C06.mpr
Saved on :
	File : N719_0713-b-4_C06.mpr
	Directory : C:\Users\EEM-620\Desktop\Wade\abao\20260713\
	Host : 192.109.209.200
Device : VSP-300 (SN 0025)
Address : 192.109.209.129
EC-LAB for windows v11.62 (software)
Internet server v27.00 (firmware)
Command interpretor v12.02 (firmware)
Electrode material : Au/Pd
Initial state : 
Electrolyte : NaCl (0.2M)
Comments : Fe(CN)63-/Fe(CN)64- 5.10-3 M
Cable : ULC
Reference electrode : SCE Saturated Calomel Electrode (0.241 V)
Electrode surface area : 0.001 cm2
Characteristic mass : 0.001 g
Equivalent Weight : 0.000 g/eq.
Density : 0.000 g/cm3
Volume (V) : 0.001 cm3
Cycle Definition : Charge/Discharge alternance
tR (h:m:s)          0:00:5.0000         
dER/dt (mV/h)       0.0                 
dER (mV)            0                   
dtR (s)             0.0500              
dE/dt               10.000              
dE/dt unit          mV/s                
Ei (V)              -0.800              
vs.                 Ref                 
EL (V)              0.010               
vs.                 Ref                 
record              <I>                 
dI                  0.000               
unit dI             uA                  
tI (s)              0.0000              
step percent        50                  
N                   10                  
E range min (V)     -2.500              
E range max (V)     2.500               
I Range             Auto                
I Range min         Unset               
I Range max         Unset               
I Range init        Unset               
Bandwidth           8                   

Ewe/V	<I>/mA	
-6.0726881E-001	0.000000000000000E+000
-6.0726881E-001	0.000000000000000E+000
-6.0700911E-001	0.000000000000000E+000
-6.0700154E-001	0.000000000000000E+000
-6.0708547E-001	0.000000000000000E+000
-6.0700911E-001	0.000000000000000E+000
-6.0759336E-001	0.000000000000000E+000
-6.0746354E-001	0.000000000000000E+000
-6.0702056E-001	0.000000000000000E+000
-6.0696328E-001	0.000000000000000E+000
-6.0703969E-001	0.000000000000000E+000
-6.0743678E-001	0.000000000000000E+000
-6.0763919E-001	0.000000000000000E+000
-6.0729551E-001	0.000000000000000E+000
-6.0668457E-001	0.000000000000000E+000
-6.0676855E-001	0.000000000000000E+000
-6.0701299E-001	0.000000000000000E+000
-6.0697097E-001	0.000000000000000E+000
-6.0684878E-001	0.000000000000000E+000
-6.0737568E-001	0.000000000000000E+000
-6.0709316E-001	0.000000000000000E+000
-6.0679913E-001	0.000000000000000E+000
-6.0702062E-001	0.000000000000000E+000
-6.0763538E-001	0.000000000000000E+000
-6.0722297E-001	0.000000000000000E+000
-6.0698241E-001	0.000000000000000E+000
-6.0721910E-001	0.000000000000000E+000
-6.0725349E-001	0.000000000000000E+000
-6.0687929E-001	0.000000000000000E+000
-6.0697478E-001	0.000000000000000E+000
-6.0726881E-001	0.000000000000000E+000
-6.0703200E-001	0.000000000000000E+000
-6.0742152E-001	0.000000000000000E+000
-6.0678768E-001	0.000000000000000E+000
-6.0721153E-001	0.000000000000000E+000
-6.0713518E-001	0.000000000000000E+000
-6.0753989E-001	0.000000000000000E+000
-6.0734129E-001	0.000000000000000E+000
-6.0720766E-001	0.000000000000000E+000
-6.0713512E-001	0.000000000000000E+000
-6.0699767E-001	0.000000000000000E+000
-6.0726112E-001	0.000000000000000E+000
-6.0713512E-001	0.000000000000000E+000
-6.0718477E-001	0.000000000000000E+000
-6.0716569E-001	0.000000000000000E+000
-6.0721534E-001	0.000000000000000E+000
-6.0664642E-001	0.000000000000000E+000
-6.0710460E-001	0.000000000000000E+000
-6.0720766E-001	0.000000000000000E+000
-6.0788351E-001	0.000000000000000E+000
-6.0713893E-001	0.000000000000000E+000
-6.0750169E-001	0.000000000000000E+000
-6.0686404E-001	0.000000000000000E+000
-6.0725349E-001	0.000000000000000E+000
-6.0752457E-001	0.000000000000000E+000
-6.0758191E-001	0.000000000000000E+000
-6.0697097E-001	0.000000000000000E+000
-6.0720390E-001	0.000000000000000E+000
-6.0707021E-001	0.000000000000000E+000
-6.0746735E-001	0.000000000000000E+000
-6.0693657E-001	0.000000000000000E+000
-6.1328638E-001	0.000000000000000E+000
-6.1173618E-001	0.000000000000000E+000
-7.8921044E-001	-1.550743696482285E+000
-7.8878754E-001	-1.542630391291311E+000
-7.8770941E-001	-1.530051513402547E+000
-7.8677285E-001	-1.518918805100302E+000
-7.8576231E-001	-1.508612943242106E+000
-7.8475314E-001	-1.498897482675531E+000
-7.8374749E-001	-1.489019550107145E+000
-7.8276390E-001	-1.479884430484489E+000
-7.8169745E-001	-1.470646839726847E+000
-7.8071123E-001	-1.461229623053917E+000
-7.7975929E-001	-1.452743178018330E+000
-7.7877712E-001	-1.443692338963354E+000
-7.7773297E-001	-1.434669705866664E+000
-7.7677464E-001	-1.426096831496444E+000
-7.7564514E-001	-1.416659086804696E+000
-7.7480841E-001	-1.407943072004457E+000
-7.7383137E-001	-1.399137293249016E+000
-7.7280170E-001	-1.390521343521492E+000
-7.7170497E-001	-1.382049887268632E+000
-7.7082682E-001	-1.373095851123287E+000
-7.6975209E-001	-1.364356303242621E+000
-7.6876825E-001	-1.355685101753032E+000
-7.6785910E-001	-1.347505675191993E+000
-7.6693362E-001	-1.338739250407169E+000
-7.6577604E-001	-1.329737574000045E+000
-7.6478755E-001	-1.321740601722228E+000
-7.6379073E-001	-1.313156375592515E+000
-7.6281667E-001	-1.304334645607958E+000
-7.6181304E-001	-1.296020267378304E+000
-7.6080924E-001	-1.287641852956128E+000
-7.5979316E-001	-1.279652495213128E+000
-7.5883120E-001	-1.271491064367616E+000
-7.5776023E-001	-1.263322114806481E+000
-7.5680023E-001	-1.254731637046289E+000
-7.5586116E-001	-1.246221451733662E+000
-7.5483513E-001	-1.237593632605339E+000
-7.5381267E-001	-1.228482106154329E+000
-7.5278646E-001	-1.219950412986458E+000
-7.5182539E-001	-1.211449755424702E+000
-7.5076848E-001	-1.202487603210630E+000
-7.5002146E-001	-1.193872891918371E+000
-7.4882936E-001	-1.184870827529160E+000
-7.4796516E-001	-1.176496055309650E+000
-7.4684536E-001	-1.167963841309145E+000
-7.4582696E-001	-1.159353270160934E+000
-7.4486750E-001	-1.150283436079555E+000
-7.4376589E-001	-1.141890903313957E+000
-7.4281913E-001	-1.133160032055997E+000
-7.4185866E-001	-1.124691332596658E+000
-7.4080688E-001	-1.116427178046218E+000
-7.3982531E-001	-1.107365993024025E+000
-7.3879510E-001	-1.099122733717520E+000
-7.3783481E-001	-1.090098297016489E+000
-7.3682654E-001	-1.081273083195645E+000
-7.3579556E-001	-1.072182656561687E+000
-7.3475516E-001	-1.064133167956707E+000
-7.3386568E-001	-1.055534482554150E+000
-7.3290527E-001	-1.046471485883425E+000
-7.3191375E-001	-1.037824998575228E+000
-7.3088133E-001	-1.029309011581871E+000
-7.2977537E-001	-1.020082802714331E+000
-7.2880328E-001	-1.011789120595768E+000
-7.2786415E-001	-1.002668524505919E+000
-7.2689170E-001	-9.944257978915658E-001
-7.2587204E-001	-9.853991427355346E-001
-7.2483206E-001	-9.771402896278403E-001
-7.2384608E-001	-9.685393733745844E-001
-7.2290522E-001	-9.603560090892866E-001
-7.2185141E-001	-9.514993568537413E-001
-7.2087592E-001	-9.430617566561743E-001
-7.1974856E-001	-9.345057763987086E-001
-7.1886981E-001	-9.258884107349079E-001
-7.1785486E-001	-9.175256040727779E-001
-7.1681255E-001	-9.091871070365123E-001
-7.1573597E-001	-9.008201851888940E-001
-7.1484774E-001	-8.921188373404938E-001
-7.1384406E-001	-8.839333463046266E-001
-7.1282136E-001	-8.753160235506520E-001
-7.1199173E-001	-8.665547268644023E-001
-7.1089464E-001	-8.580790476666529E-001
-7.0988590E-001	-8.496955288229167E-001
-7.0880961E-001	-8.412669856073722E-001
-7.0794928E-001	-8.324560997662713E-001
-7.0681304E-001	-8.240730225763913E-001
-7.0594257E-001	-8.154691505373548E-001
-7.0490813E-001	-8.065817942497843E-001
-7.0385963E-001	-7.982320248804720E-001
-7.0280576E-001	-7.896683414399561E-001
-7.0183927E-001	-7.807900574472253E-001
-7.0090151E-001	-7.721256968323829E-001
-6.9986659E-001	-7.642044665400789E-001
-6.9879001E-001	-7.550025243588063E-001
-6.9794255E-001	-7.466146135357832E-001
-6.9677919E-001	-7.381064094537066E-001
-6.9583952E-001	-7.297349405923388E-001
-6.9477761E-001	-7.206912676769259E-001
-6.9378120E-001	-7.117986990957732E-001
-6.9277066E-001	-7.034911282912439E-001
-6.9186509E-001	-6.949393313929981E-001
-6.9076711E-001	-6.863693121982655E-001
-6.8977153E-001	-6.772627132358364E-001
-6.8890351E-001	-6.688401764681111E-001
-6.8790948E-001	-6.601885032874555E-001
-6.8675238E-001	-6.513735681634270E-001
-6.8585640E-001	-6.427586806938610E-001
-6.8490112E-001	-6.340385662322803E-001
-6.8388247E-001	-6.255519261100773E-001
-6.8274599E-001	-6.168697013178095E-001
-6.8184078E-001	-6.081941909398214E-001
-6.8085313E-001	-5.988918004764452E-001
-6.7977208E-001	-5.909278239718265E-001
-6.7868370E-001	-5.822424894819640E-001
-6.7775190E-001	-5.739482584650863E-001
-6.7688984E-001	-5.655501526283047E-001
-6.7581886E-001	-5.572194541218121E-001
-6.7480010E-001	-5.484772201765455E-001
-6.7391938E-001	-5.401726956376585E-001
-6.7282170E-001	-5.315411202609539E-001
-6.7174500E-001	-5.231495032569864E-001
-6.7083204E-001	-5.149058084489448E-001
-6.6981399E-001	-5.061970473853536E-001
-6.6872174E-001	-4.976985677386878E-001
-6.6778749E-001	-4.895144061066601E-001
-6.6689616E-001	-4.807754303156226E-001
-6.6593653E-001	-4.721778155890872E-001
-6.6487366E-001	-4.641284635958146E-001
-6.6391772E-001	-4.555603030517146E-001
-6.6275686E-001	-4.468382198644418E-001
-6.6150600E-001	-4.373799477425830E-001
-6.6065347E-001	-4.289339484164001E-001
-6.5966290E-001	-4.207903850409709E-001
-6.5861219E-001	-4.123436324131831E-001
-6.5766823E-001	-4.039747317632036E-001
-6.5654951E-001	-3.950163846214600E-001
-6.5568852E-001	-3.868636023446204E-001
-6.5453368E-001	-3.788234400390484E-001
-6.5365374E-001	-3.705991355495328E-001
-6.5247375E-001	-3.622865641760111E-001
-6.5166503E-001	-3.537856832974509E-001
-6.5073866E-001	-3.456919184989395E-001
-6.4952439E-001	-3.369224579845840E-001
-6.4861971E-001	-3.289127047346156E-001
-6.4774424E-001	-3.205678448149987E-001
-6.4653939E-001	-3.122444154016806E-001
-6.4563853E-001	-3.040531834380484E-001
-6.4462727E-001	-2.956965809555645E-001
-6.4359021E-001	-2.873380678464414E-001
-6.4243090E-001	-2.794573371885005E-001
-6.4163107E-001	-2.711615335623256E-001
-6.4048976E-001	-2.626907862722871E-001
-6.3952225E-001	-2.543928658382757E-001
-6.3868493E-001	-2.461633015689642E-001
-6.3759589E-001	-2.376412852770740E-001
-6.3636112E-001	-2.297631372801128E-001
-6.3571036E-001	-2.213858908539166E-001
-6.3449901E-001	-2.131113065751618E-001
-6.3368124E-001	-2.049975316212684E-001
-6.3256341E-001	-1.968094934022018E-001
-6.3144535E-001	-1.887728876813695E-001
-6.3055772E-001	-1.804179498684357E-001
-6.2951785E-001	-1.721131023653124E-001
-6.2855357E-001	-1.637015801819937E-001
-6.2762845E-001	-1.553965329744471E-001
-6.2656122E-001	-1.473187537030130E-001
-6.2556726E-001	-1.390889253191370E-001
-6.2451231E-001	-1.309064652736267E-001
-6.2381727E-001	-1.225939404123433E-001
-6.2256455E-001	-1.145494561125002E-001
-6.2167746E-001	-1.065325023847874E-001
-6.2051302E-001	-9.826819676747944E-002
-6.1952686E-001	-9.033973606441320E-002
-6.1880201E-001	-8.215927894882558E-002
-6.1750144E-001	-7.391627928838046E-002
-6.1641455E-001	-6.492277067499563E-002
-6.1560410E-001	-5.711406374488170E-002
-6.1473650E-001	-4.953287000611151E-002
-6.1354780E-001	-4.024335317031091E-002
-6.1233431E-001	-3.075901254218202E-002
-6.1125398E-001	-2.279074416094135E-002
-6.1024678E-001	-1.473263520488727E-002
-6.0941100E-001	-6.365405507461182E-003
-6.0840136E-001	2.193348526375091E-003
-6.0750139E-001	9.972433809673886E-003
-6.0645139E-001	1.817160414066160E-002
-6.0552073E-001	2.653920360323908E-002
-6.0425413E-001	3.460668792723931E-002
-6.0334265E-001	4.291271840015215E-002
-6.0226864E-001	5.097287297515019E-002
-6.0109895E-001	5.907767512663076E-002
-6.0042685E-001	6.722432971339165E-002
-5.9937930E-001	7.532394158274514E-002
-5.9829700E-001	8.336810184711674E-002
-5.9731913E-001	9.177320047733284E-002
-5.9623080E-001	9.982374080249867E-002
-5.9529793E-001	1.089006731349472E-001
-5.9378535E-001	1.179848408400999E-001
-5.9299374E-001	1.263616104023881E-001
-5.9179187E-001	1.341599679931444E-001
-5.9098792E-001	1.425422284497095E-001
-5.8986789E-001	1.508891687693965E-001
-5.8887070E-001	1.587862248222041E-001
-5.8787429E-001	1.670038533155006E-001
-5.8695793E-001	1.748741297568717E-001
-5.8609962E-001	1.831021220250819E-001
-5.8488858E-001	1.913015332192556E-001
-5.8382946E-001	1.994517500063884E-001
-5.8296186E-001	2.072842054551942E-001
-5.8195865E-001	2.153439605419196E-001
-5.8098227E-001	2.234956903245164E-001
-5.7990134E-001	2.317198960593463E-001
-5.7919127E-001	2.390811883065163E-001
-5.7788885E-001	2.473330947536004E-001
-5.7678962E-001	2.561188910708387E-001
-5.7582438E-001	2.642633834725290E-001
-5.7492632E-001	2.705446167124648E-001
-5.7400012E-001	2.777038517028655E-001
-5.7284856E-001	2.830508061528083E-001
-5.7202226E-001	2.877230099919772E-001
-5.7103056E-001	2.946583645211329E-001
-5.6992024E-001	3.021446858709460E-001
-5.6884480E-001	3.097889364041668E-001
-5.6788808E-001	3.174234917732302E-001
-5.6673598E-001	3.249987625011292E-001
-5.6591088E-001	3.325496891306496E-001
-5.6499189E-001	3.402467609762589E-001
-5.6384391E-001	3.479711713497766E-001
-5.6307667E-001	3.555134318217110E-001
-5.6196529E-001	3.634056377190138E-001
-5.6106132E-001	3.706909650006893E-001
-5.6000501E-001	3.791815475733209E-001
-5.5891359E-001	3.868522187694916E-001
-5.5809373E-001	3.955020250155696E-001
-5.5679935E-001	4.033030922766083E-001
-5.5584580E-001	4.114523614170391E-001
-5.5488998E-001	4.189117243498485E-001
-5.5404633E-001	4.268222158705741E-001
-5.5299455E-001	4.342335644695492E-001
-5.5189937E-001	4.420500869252368E-001
-5.5087614E-001	4.500380530953434E-001
-5.5007321E-001	4.577926722608636E-001
-5.4891032E-001	4.664338006189581E-001
-5.4787660E-001	4.743357693293611E-001
-5.4684991E-001	4.820777598658701E-001
-5.4607338E-001	4.897665777416149E-001
-5.4491079E-001	4.970792895527891E-001
-5.4395592E-001	5.041135655206395E-001
-5.4294831E-001	5.122223074927401E-001
-5.4186434E-001	5.197570256336959E-001
-5.4102165E-001	5.278373881035794E-001
-5.3993541E-001	5.354167727960482E-001
-5.3899634E-001	5.430739448854225E-001
-5.3796566E-001	5.507165605798665E-001
-5.3697097E-001	5.590084848442585E-001
-5.3589141E-001	5.662941539453143E-001
-5.3491670E-001	5.736558874500552E-001
-5.3384358E-001	5.808925080216620E-001
-5.3295624E-001	5.882987246883129E-001
-5.3194559E-001	5.957452047566126E-001
-5.3101289E-001	6.037429447665259E-001
-5.3009695E-001	6.109923051877164E-001
-5.2877635E-001	6.188857609048446E-001
-5.2801365E-001	6.262568863867604E-001
-5.2693903E-001	6.334192303043862E-001
-5.2598280E-001	6.414469659115873E-001
-5.2497131E-001	6.490772547269312E-001
-5.2382821E-001	6.559812977772106E-001
-5.2288866E-001	6.637644688639242E-001
-5.2208662E-001	6.717146482594600E-001
-5.2093822E-001	6.790014377070772E-001
-5.1998168E-001	6.864960152581405E-001
-5.1892632E-001	6.940128192719499E-001
-5.1797360E-001	7.011780512553685E-001
-5.1676786E-001	7.087648343320705E-001
-5.1590580E-001	7.166894029274036E-001
-5.1495653E-001	7.244506565922944E-001
-5.1387417E-001	7.316345759354164E-001
-5.1300079E-001	7.384141078563747E-001
-5.1199883E-001	7.463190772881099E-001
-5.1098049E-001	7.539181453954278E-001
-5.1002228E-001	7.612249591146352E-001
-5.0897503E-001	7.682925602766106E-001
-5.0784075E-001	7.757182989480782E-001
-5.0676990E-001	7.830100666593637E-001
-5.0585294E-001	7.903632840348607E-001
-5.0502616E-001	7.974619745505009E-001
-5.0391978E-001	8.049776897662220E-001
-5.0286591E-001	8.122290669492003E-001
-5.0189894E-001	8.191502929042365E-001
-5.0103718E-001	8.259924875089428E-001
-4.9996853E-001	8.334052893850554E-001
-4.9885231E-001	8.403419845669764E-001
-4.9784216E-001	8.475975661917943E-001
-4.9694076E-001	8.541523868011107E-001
-4.9589419E-001	8.615688957637815E-001
-4.9496308E-001	8.689254835523954E-001
-4.9388996E-001	8.757846147097936E-001
-4.9290842E-001	8.828838882478944E-001
-4.9203664E-001	8.907135374568149E-001
-4.9093863E-001	8.973944725261793E-001
-4.8995879E-001	9.045046993355808E-001
-4.8898366E-001	9.116408412379240E-001
-4.8791635E-001	9.195036492634081E-001
-4.8708391E-001	9.258354291043913E-001
-4.8603317E-001	9.323779944744396E-001
-4.8483571E-001	9.394331266233280E-001
-4.8404893E-001	9.467514550520342E-001
-4.8298943E-001	9.534698377052955E-001
-4.8184073E-001	9.614214868079514E-001
-4.8091054E-001	9.682029887206092E-001
-4.7998568E-001	9.744556537932815E-001
-4.7903594E-001	9.817524896511092E-001
-4.7786990E-001	9.886545750002114E-001
-4.7697642E-001	9.954860203520022E-001
-4.7584888E-001	1.002623878267169E+000
-4.7493869E-001	1.009744765443937E+000
-4.7391480E-001	1.016422192255657E+000
-4.7292325E-001	1.023647057000195E+000
-4.7191635E-001	1.030257493671446E+000
-4.7086075E-001	1.037408623982362E+000
-4.7002333E-001	1.044518472243647E+000
-4.6893296E-001	1.051277530690036E+000
-4.6789140E-001	1.058391086895156E+000
-4.6679589E-001	1.065095911787945E+000
-4.6604189E-001	1.072522291844643E+000
-4.6478438E-001	1.079619162750461E+000
-4.6389440E-001	1.086579905347372E+000
-4.6300209E-001	1.093337312616685E+000
-4.6197137E-001	1.101209017819812E+000
-4.6076372E-001	1.108812422005911E+000
-4.5967233E-001	1.115584850035330E+000
-4.5869163E-001	1.122953439476316E+000
-4.5778364E-001	1.129824515175638E+000
-4.5678467E-001	1.137758008997753E+000
-4.5573509E-001	1.143756149129737E+000
-4.5479760E-001	1.149986532603323E+000
-4.5371959E-001	1.156949882430059E+000
-4.5274830E-001	1.163628082308504E+000
-4.5170900E-001	1.171175573251679E+000
-4.5074069E-001	1.177751169574484E+000
-4.4971102E-001	1.184846530220028E+000
-4.4869640E-001	1.190708162493990E+000
-4.4780973E-001	1.196770539714229E+000
-4.4669160E-001	1.203543897718189E+000
-4.4567764E-001	1.211285475479519E+000
-4.4481236E-001	1.218606035880473E+000
-4.4367409E-001	1.225081651575032E+000
-4.4271508E-001	1.231377923528207E+000
-4.4172442E-001	1.238078569648442E+000
-4.4077411E-001	1.244471466010339E+000
-4.3973297E-001	1.250712293441650E+000
-4.3884605E-001	1.256693512615236E+000
-4.3772402E-001	1.263664833759321E+000
-4.3672058E-001	1.269823546624849E+000
-4.3566951E-001	1.276142319733342E+000
-4.3475777E-001	1.282828461959951E+000
-4.3363816E-001	1.289523043704261E+000
-4.3275890E-001	1.295708659346454E+000
-4.3175697E-001	1.301533549262405E+000
-4.3079373E-001	1.307757772367303E+000
-4.2972228E-001	1.314095645453094E+000
-4.2880365E-001	1.320294742009498E+000
-4.2775485E-001	1.326672795470114E+000
-4.2665786E-001	1.332778722875652E+000
-4.2568186E-001	1.339435908509214E+000
-4.2478186E-001	1.345946392251388E+000
-4.2373958E-001	1.352103596346251E+000
-4.2280641E-001	1.358751439371916E+000
-4.2167372E-001	1.364968616515394E+000
-4.2076731E-001	1.371571078896528E+000
-4.1969621E-001	1.378101356145725E+000
-4.1874361E-001	1.384059097203947E+000
-4.1782764E-001	1.390187278251958E+000
-4.1672203E-001	1.398001672351516E+000
-4.1574648E-001	1.403529757564823E+000
-4.1466248E-001	1.409463782691294E+000
-4.1372126E-001	1.415850340006486E+000
-4.1268247E-001	1.422057434226623E+000
-4.1165352E-001	1.427772004433251E+000
-4.1066349E-001	1.434629249525521E+000
-4.0971509E-001	1.440870296761950E+000
-4.0858740E-001	1.446922237122507E+000
-4.0777051E-001	1.453269020885218E+000
-4.0680441E-001	1.460003726046399E+000
-4.0577522E-001	1.466283159399481E+000
-4.0466583E-001	1.472664490614857E+000
-4.0378848E-001	1.478617509206131E+000
-4.0274283E-001	1.484990074402763E+000
-4.0171948E-001	1.490989432021906E+000
-4.0079403E-001	1.497039010403320E+000
-3.9981464E-001	1.503629733290936E+000
-3.9871922E-001	1.509249900148536E+000
-3.9768213E-001	1.515452048844763E+000
-3.9670724E-001	1.521833066587095E+000
-3.9574710E-001	1.527568895381187E+000
-3.9475775E-001	1.533945358737746E+000
-3.9372680E-001	1.539412442180847E+000
-3.9270279E-001	1.545755219860290E+000
-3.9169398E-001	1.551816725344578E+000
-3.9078501E-001	1.558123832913465E+000
-3.8969758E-001	1.564685213864419E+000
-3.8884786E-001	1.570259355560498E+000
-3.8783044E-001	1.576727529090864E+000
-3.8671124E-001	1.582535547341607E+000
-3.8573235E-001	1.589099807043876E+000
-3.8474467E-001	1.595003170547670E+000
-3.8371691E-001	1.600795890644736E+000
-3.8267791E-001	1.606552907990089E+000
-3.8177365E-001	1.612529392043745E+000
-3.8069686E-001	1.618103566872708E+000
-3.7964022E-001	1.624551730575384E+000
-3.7876245E-001	1.629586143350153E+000
-3.7775934E-001	1.636197030580277E+000
-3.7673962E-001	1.641459741526170E+000
-3.7579972E-001	1.648103406583825E+000
-3.7468791E-001	1.654227206732440E+000
-3.7382904E-001	1.659927631417917E+000
-3.7263966E-001	1.665603321633032E+000
-3.7177119E-001	1.671062926451368E+000
-3.7076208E-001	1.676614802192745E+000
-3.6969766E-001	1.681895058863859E+000
-3.6881581E-001	1.687827136229583E+000
-3.6766163E-001	1.693195560464153E+000
-3.6671919E-001	1.698367301809121E+000
-3.6565790E-001	1.704128961044326E+000
-3.6466914E-001	1.709736519113733E+000
-3.6363974E-001	1.715335567266550E+000
-3.6269996E-001	1.720796354115012E+000
-3.6175665E-001	1.728404115471577E+000
-3.6075994E-001	1.732602614132034E+000
-3.5973015E-001	1.738204175123457E+000
-3.5877922E-001	1.743523039475626E+000
-3.5777542E-001	1.748042884998728E+000
-3.5668829E-001	1.753320017070685E+000
-3.5564628E-001	1.759159596981828E+000
-3.5462359E-001	1.765641494445042E+000
-3.5368028E-001	1.771110854491049E+000
-3.5265025E-001	1.776738534095117E+000
-3.5183933E-001	1.782709531635618E+000
-3.5074067E-001	1.787906330492767E+000
-3.4974408E-001	1.793398553574526E+000
-3.4873104E-001	1.799557515496588E+000
-3.4774649E-001	1.805405109292931E+000
-3.4667924E-001	1.810791682589933E+000
-3.4567404E-001	1.815934134937343E+000
-3.4482399E-001	1.821136479300497E+000
-3.4385413E-001	1.826648773694480E+000
-3.4273204E-001	1.833239617230383E+000
-3.4172589E-001	1.838110568898698E+000
-3.4070408E-001	1.843807538074476E+000
-3.3971941E-001	1.849564773445879E+000
-3.3872169E-001	1.855270209411778E+000
-3.3780259E-001	1.861283583221606E+000
-3.3671483E-001	1.865998584908780E+000
-3.3574384E-001	1.871391127506886E+000
-3.3476809E-001	1.877343639179516E+000
-3.3365211E-001	1.882986825058474E+000
-3.3267501E-001	1.888793153895271E+000
-3.3170813E-001	1.893939581182263E+000
-3.3077192E-001	1.899487577900132E+000
-3.2978627E-001	1.904705968719941E+000
-3.2870868E-001	1.910487294748977E+000
-3.2773715E-001	1.915602285198631E+000
-3.2671660E-001	1.920901605376489E+000
-3.2575375E-001	1.926022335059109E+000
-3.2478550E-001	1.932321361435054E+000
-3.2380280E-001	1.937422491334102E+000
-3.2273957E-001	1.942886057551256E+000
-3.2163784E-001	1.949287936679646E+000
-3.2080546E-001	1.953693119188149E+000
-3.1982076E-001	1.959065272576279E+000
-3.1878594E-001	1.963907197555489E+000
-3.1778538E-001	1.968891908449145E+000
-3.1668043E-001	1.973227753407432E+000
-3.1575894E-001	1.979091091444452E+000
-3.1472629E-001	1.984859887924458E+000
-3.1380162E-001	1.990210905119236E+000
-3.1278765E-001	1.995656628335640E+000
-3.1168669E-001	2.000505004768026E+000
-3.1081021E-001	2.005946624334213E+000
-3.0983421E-001	2.010952071855129E+000
-3.0875066E-001	2.016234567043952E+000
-3.0780181E-001	2.020791775470408E+000
-3.0675751E-001	2.026706641470941E+000
-3.0563983E-001	2.030684066039541E+000
-3.0472404E-001	2.036370438997324E+000
-3.0376464E-001	2.041407900827906E+000
-3.0289447E-001	2.046447027888568E+000
-3.0173710E-001	2.050664156176556E+000
-3.0075216E-001	2.056055717998071E+000
-2.9968923E-001	2.060933838287987E+000
-2.9879457E-001	2.065179865655431E+000
-2.9774508E-001	2.070864852103917E+000
-2.9685137E-001	2.076021140648258E+000
-2.9585984E-001	2.081095026756156E+000
-2.9485717E-001	2.086036903714694E+000
-2.9384810E-001	2.090869204313677E+000
-2.9273286E-001	2.095475465190582E+000
-2.9180509E-001	2.101151496171958E+000
-2.9085541E-001	2.105547215375633E+000
-2.8968629E-001	2.110382108124879E+000
-2.8879052E-001	2.115145916188200E+000
-2.8773311E-001	2.120451460006059E+000
-2.8682104E-001	2.125079654308433E+000
-2.8579021E-001	2.130476685033907E+000
-2.8476945E-001	2.135032168417062E+000
-2.8391159E-001	2.139850334395014E+000
-2.8283188E-001	2.144623069575543E+000
-2.8176275E-001	2.149651489875936E+000
-2.8079125E-001	2.154305149263074E+000
-2.7972740E-001	2.159498653478089E+000
-2.7872914E-001	2.164006649344053E+000
-2.7783269E-001	2.168554518841614E+000
-2.7670094E-001	2.173294485443169E+000
-2.7583167E-001	2.177747423174203E+000
-2.7478692E-001	2.182325922786987E+000
-2.7375433E-001	2.186874554389050E+000
-2.7274674E-001	2.191241822308974E+000
-2.7181575E-001	2.195843171424144E+000
-2.7078962E-001	2.200294752915701E+000
-2.6986223E-001	2.205250556546233E+000
-2.6881826E-001	2.210246579616415E+000
-2.6776129E-001	2.215170905545911E+000
-2.6672506E-001	2.218771636486046E+000
-2.6573193E-001	2.223930295137968E+000
-2.6480317E-001	2.227817311055126E+000
-2.6381677E-001	2.232643776193811E+000
-2.6280767E-001	2.237141770589155E+000
-2.6178780E-001	2.241548269711164E+000
-2.6083913E-001	2.246209302710156E+000
-2.5981745E-001	2.250528347974735E+000
-2.5883859E-001	2.255132960224600E+000
-2.5766805E-001	2.259397207862797E+000
-2.5669062E-001	2.264559580723855E+000
-2.5573325E-001	2.268993318632798E+000
-2.5481582E-001	2.273834386633503E+000
-2.5380641E-001	2.277957753222843E+000
-2.5264341E-001	2.281955887322063E+000
-2.5177813E-001	2.286759093403806E+000
-2.5070626E-001	2.290249873455203E+000
-2.4962209E-001	2.293853595852852E+000
-2.4879372E-001	2.299220586540528E+000
-2.4777018E-001	2.304537493453598E+000
-2.4680330E-001	2.308675105649019E+000
-2.4573503E-001	2.312862590783176E+000
-2.4480358E-001	2.317250519738966E+000
-2.4377370E-001	2.321963098590025E+000
-2.4273619E-001	2.325969919213630E+000
-2.4171330E-001	2.330748397167085E+000
-2.4075301E-001	2.334706602825072E+000
-2.3989186E-001	2.338515305664556E+000
-2.3867564E-001	2.344294768792619E+000
-2.3779701E-001	2.350332192800657E+000
-2.3680298E-001	2.356592479922369E+000
-2.3583759E-001	2.363742056268233E+000
-2.3472135E-001	2.368873182822163E+000
-2.3364627E-001	2.373841233748475E+000
-2.3274055E-001	2.378227667952018E+000
-2.3186275E-001	2.382305463431067E+000
-2.3088856E-001	2.386981546113102E+000
-2.2982462E-001	2.390504054173263E+000
-2.2876866E-001	2.395751489257374E+000
-2.2766273E-001	2.402362553175585E+000
-2.2682749E-001	2.406344829610092E+000
-2.2576898E-001	2.410269013157597E+000
-2.2477435E-001	2.414016496384946E+000
-2.2368056E-001	2.417975466836385E+000
-2.2279897E-001	2.421376426462768E+000
-2.2172396E-001	2.427964609140965E+000
-2.2077613E-001	2.429592836234301E+000
-2.1975601E-001	2.433753985773626E+000
-2.1875192E-001	2.437335656076307E+000
-2.1776733E-001	2.441373662264269E+000
-2.1684478E-001	2.445503069570783E+000
-2.1588495E-001	2.449645477607316E+000
-2.1487769E-001	2.453710044699676E+000
-2.1381579E-001	2.457633466632279E+000
-2.1278206E-001	2.462604531873953E+000
-2.1174945E-001	2.466943940078774E+000
-2.1078344E-001	2.469934216252077E+000
-2.0981884E-001	2.473831935672351E+000
-2.0881598E-001	2.478104769631670E+000
-2.0783401E-001	2.482153389188976E+000
-2.0683655E-001	2.486940080925180E+000
-2.0580778E-001	2.490963998768073E+000
-2.0479530E-001	2.495317196404491E+000
-2.0386761E-001	2.499588093914120E+000
-2.0281786E-001	2.503567632149768E+000
-2.0158711E-001	2.507566006371267E+000
-2.0082827E-001	2.511211429967638E+000
-1.9977210E-001	2.515453549170935E+000
-1.9873652E-001	2.519154785407906E+000
-1.9774093E-001	2.524540949411211E+000
-1.9677390E-001	2.527948125369027E+000
-1.9577350E-001	2.531634776128666E+000
-1.9471337E-001	2.536196226221333E+000
-1.9379032E-001	2.540507790391090E+000
-1.9284955E-001	2.544638654424094E+000
-1.9181699E-001	2.547734774430069E+000
-1.9076666E-001	2.552138010384866E+000
-1.8982249E-001	2.557066725635966E+000
-1.8899831E-001	2.561000428067182E+000
-1.8782574E-001	2.564914662252971E+000
-1.8690361E-001	2.568474993385649E+000
-1.8586054E-001	2.572159283227968E+000
-1.8492171E-001	2.576741729897478E+000
-1.8377599E-001	2.579150173399185E+000
-1.8281783E-001	2.584287713451282E+000
-1.8184288E-001	2.587178998799235E+000
-1.8081428E-001	2.592184329750364E+000
-1.7976341E-001	2.596411238365996E+000
-1.7876999E-001	2.600597788062352E+000
-1.7783886E-001	2.604400823118311E+000
-1.7685281E-001	2.608339135569544E+000
-1.7571154E-001	2.612303981626482E+000
-1.7486316E-001	2.616265528757055E+000
-1.7390934E-001	2.620265237435153E+000
-1.7278187E-001	2.623711542398834E+000
-1.7176929E-001	2.628546236326107E+000
-1.7092066E-001	2.632072636098769E+000
-1.6985366E-001	2.635990311150188E+000
-1.6889399E-001	2.639310544405340E+000
-1.6784607E-001	2.643346484060636E+000
-1.6691718E-001	2.647296443857533E+000
-1.6587161E-001	2.651015948385066E+000
-1.6477512E-001	2.655132943833301E+000
-1.6383857E-001	2.659619751627790E+000
-1.6284716E-001	2.662696519301377E+000
-1.6189761E-001	2.667823130609815E+000
-1.6074470E-001	2.671593660281769E+000
-1.5964511E-001	2.675981924047463E+000
-1.5885380E-001	2.679373338818557E+000
-1.5781733E-001	2.683198709178866E+000
-1.5685746E-001	2.686937812685345E+000
-1.5582269E-001	2.690883430065931E+000
-1.5483822E-001	2.694101112860224E+000
-1.5386575E-001	2.697380386551473E+000
-1.5284210E-001	2.700426520020866E+000
-1.5184638E-001	2.707802510371916E+000
-1.5087955E-001	2.709219442262225E+000
-1.4979659E-001	2.709868012203110E+000
-1.4878771E-001	2.715383041236134E+000
-1.4786170E-001	2.718953555209406E+000
-1.4686881E-001	2.722483461929691E+000
-1.4587797E-001	2.726498154854330E+000
-1.4480834E-001	2.730699594228103E+000
-1.4393763E-001	2.734702187003919E+000
-1.4281614E-001	2.739252489750022E+000
-1.4178957E-001	2.742442150920313E+000
-1.4082359E-001	2.746539343838332E+000
-1.3988812E-001	2.750576197825090E+000
-1.3883865E-001	2.754961074022418E+000
-1.3783388E-001	2.758640285995279E+000
-1.3680272E-001	2.763475374215187E+000
-1.3582940E-001	2.765996719002812E+000
-1.3483037E-001	2.769340547422555E+000
-1.3389529E-001	2.773399829864502E+000
-1.3283788E-001	2.776465735533300E+000
-1.3181542E-001	2.779801402930861E+000
-1.3088544E-001	2.782095811157312E+000
-1.2978731E-001	2.786076178735811E+000
-1.2876564E-001	2.790676832199092E+000
-1.2784056E-001	2.793575650287991E+000
-1.2680098E-001	2.797082349251113E+000
-1.2582980E-001	2.800371256691435E+000
-1.2476047E-001	2.804056489357244E+000
-1.2388611E-001	2.807934272182401E+000
-1.2283668E-001	2.811237789690495E+000
-1.2181337E-001	2.814300366849814E+000
-1.2090445E-001	2.817549973674327E+000
-1.1985502E-001	2.821758980000465E+000
-1.1885949E-001	2.826367820302647E+000
-1.1779674E-001	2.829839242793233E+000
-1.1678576E-001	2.833795886348817E+000
-1.1581166E-001	2.837361768715915E+000
-1.1477691E-001	2.841183196567300E+000
-1.1384057E-001	2.844267954153061E+000
-1.1295171E-001	2.847685053498722E+000
-1.1183469E-001	2.850623424130461E+000
-1.1079420E-001	2.855143441646192E+000
-1.0975871E-001	2.859475524060713E+000
-1.0892368E-001	2.863111764744477E+000
-1.0786514E-001	2.866523381460581E+000
-1.0685293E-001	2.869850275083607E+000
-1.0586565E-001	2.874019504697230E+000
-1.0481433E-001	2.876591401243658E+000
-1.0381340E-001	2.880689610450296E+000
-1.0290243E-001	2.884735907117516E+000
-1.0184731E-001	2.887667210013785E+000
-1.0084127E-001	2.891103357957796E+000
-9.9814482E-002	2.894809435915057E+000
-9.8867342E-002	2.897393115692680E+000
-9.7938165E-002	2.900687352453886E+000
-9.6880339E-002	2.904895421807410E+000
-9.5843241E-002	2.908040685510173E+000
-9.4903059E-002	2.912239024631994E+000
-9.3843952E-002	2.916029580489351E+000
-9.2845678E-002	2.917516229053341E+000
-9.1947146E-002	2.922263875764816E+000
-9.0830043E-002	2.925359089617380E+000
-8.9850225E-002	2.928628132023206E+000
-8.8877022E-002	2.931437842336983E+000
-8.7889746E-002	2.934264110194306E+000
-8.6842693E-002	2.937178567603770E+000
-8.5836574E-002	2.940718192159736E+000
-8.4903836E-002	2.944808875245059E+000
-8.3857417E-002	2.947272449455880E+000
-8.2926221E-002	2.949993699109427E+000
-8.1893325E-002	2.951971439299768E+000
-8.0842867E-002	2.956187866628149E+000
-7.9799958E-002	2.958872095826363E+000
-7.8872643E-002	2.962101460606972E+000
-7.7786118E-002	2.965890739527026E+000
-7.6756440E-002	2.968643360436573E+000
-7.5769000E-002	2.970451758415606E+000
-7.4882314E-002	2.973949108410757E+000
-7.3842250E-002	2.977117903807880E+000
-7.3032342E-002	2.980775990419914E+000
-7.1870737E-002	2.982896264780443E+000
-7.0835330E-002	2.986575048674766E+000
-6.9807366E-002	2.990467186327336E+000
-6.8893738E-002	2.993048050889257E+000
-6.7861818E-002	2.995808631793992E+000
-6.6855617E-002	2.998048809943370E+000
-6.5857559E-002	3.002015072990343E+000
-6.4925998E-002	3.006350986117708E+000
-6.3956045E-002	3.008131383745749E+000
-6.2834531E-002	3.011597835907232E+000
-6.1943907E-002	3.014407079011413E+000
-6.0853474E-002	3.017796584577468E+000
-5.9903346E-002	3.021410145969298E+000
-5.8873434E-002	3.023817577134874E+000
-5.7883691E-002	3.028080970048896E+000
-5.6943752E-002	3.030175101701857E+000
-5.5821918E-002	3.033106881657510E+000
-5.4811236E-002	3.035832047738410E+000
-5.3800445E-002	3.038811744363223E+000
-5.2892439E-002	3.042468654632160E+000
-5.1856507E-002	3.043998846025374E+000
-5.0792690E-002	3.048420056700692E+000
-4.9934004E-002	3.052205477563760E+000
-4.8941668E-002	3.055608955246427E+000
-4.7820996E-002	3.058182129429440E+000
-4.6908002E-002	3.061263883015471E+000
-4.5878336E-002	3.063671973016511E+000
-4.4834640E-002	3.066540002421747E+000
-4.3832581E-002	3.069667197212034E+000
-4.2871423E-002	3.072069782349779E+000
-4.1890331E-002	3.075069724616430E+000
-4.0903941E-002	3.077777831090813E+000
-3.9819129E-002	3.080970918966671E+000
-3.8866393E-002	3.083539658078024E+000
-3.7797973E-002	3.086958371102813E+000
-3.6873735E-002	3.087883564333126E+000
-3.5919417E-002	3.092350134873200E+000
-3.4951866E-002	3.095809785304240E+000
-3.3933438E-002	3.098914225068341E+000
-3.2872286E-002	3.101737886391660E+000
-3.1832952E-002	3.104328981704185E+000
-3.0831076E-002	3.106930288451697E+000
-2.9830733E-002	3.110482812030234E+000
-2.8830927E-002	3.114320408690858E+000
-2.7839867E-002	3.116318717322969E+000
-2.6871033E-002	3.119857677763193E+000
-2.5868353E-002	3.122886793205026E+000
-2.4893630E-002	3.125303736991349E+000
-2.3868149E-002	3.129629525156417E+000
-2.2854025E-002	3.131400845117041E+000
-2.1894572E-002	3.138671439554965E+000
-2.0861346E-002	3.139722997372644E+000
-1.9931544E-002	3.141148591483088E+000
-1.8839724E-002	3.143801022458963E+000
-1.7920461E-002	3.146719248246502E+000
-1.6877335E-002	3.150393978313163E+000
-1.5794212E-002	3.152541738417419E+000
-1.4939819E-002	3.156064283154830E+000
-1.3787061E-002	3.157943535182216E+000
-1.2906308E-002	3.161336544487206E+000
-1.1869153E-002	3.165135477030532E+000
-1.0887704E-002	3.167685526388667E+000
-9.9407658E-003	3.170115569123524E+000
-8.8628726E-003	3.173134878188797E+000
-7.8657363E-003	3.177044819350598E+000
-6.9374670E-003	3.179834658349009E+000
-5.9042564E-003	3.183158955453969E+000
-4.9432572E-003	3.186030070538877E+000
-3.9091357E-003	3.189044524122160E+000
-2.8321499E-003	3.192799218055967E+000
-1.8601967E-003	3.195579403528470E+000
-8.6489477E-004	3.197924439553866E+000
9.2420654E-005	3.201136816876325E+000
1.0773434E-003	3.204350328003898E+000
2.1727688E-003	3.207158282951092E+000
3.1255770E-003	3.214242739192954E+000
4.1243401E-003	3.214712424962613E+000
5.0723376E-003	3.216612234159747E+000
6.1657713E-003	3.219288450106845E+000
6.8349056E-003	3.221466928720467E+000
6.4988956E-003	3.221061617136002E+000