EC-Lab ASCII FILE
Nb header lines : 63                          

Linear Sweep Voltammetry

Run on channel : 6 (SN 13765)
User : 
Electrode connection : standard
Potential control : Ewe
Ewe ctrl range : min = -2.50 V, max = 2.50 V
Ewe,I filtering : <None>
Safety Limits :
	Do not start on E overload
Channel : Floating
Acquisition started on : 07/13/2026 15:50:57.780
Technique started on : 07/13/2026 15:50:58.777
Loaded Setting File :  C:\Users\EEM-620\Desktop\Wade\20260630\LSV 1mg MoS2 1_C06.mpr
Saved on :
	File : N719_0713-c-3_C06.mpr
	Directory : C:\Users\EEM-620\Desktop\Wade\abao\20260713\
	Host : 192.109.209.200
Device : VSP-300 (SN 0025)
Address : 192.109.209.129
EC-LAB for windows v11.62 (software)
Internet server v27.00 (firmware)
Command interpretor v12.02 (firmware)
Electrode material : Au/Pd
Initial state : 
Electrolyte : NaCl (0.2M)
Comments : Fe(CN)63-/Fe(CN)64- 5.10-3 M
Cable : ULC
Reference electrode : SCE Saturated Calomel Electrode (0.241 V)
Electrode surface area : 0.001 cm2
Characteristic mass : 0.001 g
Equivalent Weight : 0.000 g/eq.
Density : 0.000 g/cm3
Volume (V) : 0.001 cm3
Cycle Definition : Charge/Discharge alternance
tR (h:m:s)          0:00:5.0000         
dER/dt (mV/h)       0.0                 
dER (mV)            0                   
dtR (s)             0.0500              
dE/dt               10.000              
dE/dt unit          mV/s                
Ei (V)              -0.800              
vs.                 Ref                 
EL (V)              0.010               
vs.                 Ref                 
record              <I>                 
dI                  0.000               
unit dI             uA                  
tI (s)              0.0000              
step percent        50                  
N                   10                  
E range min (V)     -2.500              
E range max (V)     2.500               
I Range             Auto                
I Range min         Unset               
I Range max         Unset               
I Range init        Unset               
Bandwidth           8                   

Ewe/V	<I>/mA	
-2.5968194E-001	0.000000000000000E+000
-2.5936121E-001	0.000000000000000E+000
-2.5978503E-001	0.000000000000000E+000
-2.5930774E-001	0.000000000000000E+000
-2.5951394E-001	0.000000000000000E+000
-2.5939938E-001	0.000000000000000E+000
-2.5939557E-001	0.000000000000000E+000
-2.5956357E-001	0.000000000000000E+000
-2.5931540E-001	0.000000000000000E+000
-2.5974685E-001	0.000000000000000E+000
-2.5963610E-001	0.000000000000000E+000
-2.5922754E-001	0.000000000000000E+000
-2.5991103E-001	0.000000000000000E+000
-2.5944903E-001	0.000000000000000E+000
-2.5968194E-001	0.000000000000000E+000
-2.5967050E-001	0.000000000000000E+000
-2.5962847E-001	0.000000000000000E+000
-2.5938413E-001	0.000000000000000E+000
-2.6010194E-001	0.000000000000000E+000
-2.5980031E-001	0.000000000000000E+000
-2.5954831E-001	0.000000000000000E+000
-2.5932685E-001	0.000000000000000E+000
-2.5930774E-001	0.000000000000000E+000
-2.5922376E-001	0.000000000000000E+000
-2.5937647E-001	0.000000000000000E+000
-2.5908247E-001	0.000000000000000E+000
-2.5933066E-001	0.000000000000000E+000
-2.5954068E-001	0.000000000000000E+000
-2.5923136E-001	0.000000000000000E+000
-2.5949484E-001	0.000000000000000E+000
-2.5955212E-001	0.000000000000000E+000
-2.5929248E-001	0.000000000000000E+000
-2.5880754E-001	0.000000000000000E+000
-2.5945666E-001	0.000000000000000E+000
-2.5967431E-001	0.000000000000000E+000
-2.5965902E-001	0.000000000000000E+000
-2.5952920E-001	0.000000000000000E+000
-2.5928867E-001	0.000000000000000E+000
-2.5925428E-001	0.000000000000000E+000
-2.5887626E-001	0.000000000000000E+000
-2.5957501E-001	0.000000000000000E+000
-2.5971630E-001	0.000000000000000E+000
-2.5939175E-001	0.000000000000000E+000
-2.5918555E-001	0.000000000000000E+000
-2.5925428E-001	0.000000000000000E+000
-2.5938028E-001	0.000000000000000E+000
-2.5922373E-001	0.000000000000000E+000
-2.5965902E-001	0.000000000000000E+000
-2.5952157E-001	0.000000000000000E+000
-2.5950631E-001	0.000000000000000E+000
-2.5939938E-001	0.000000000000000E+000
-2.5920847E-001	0.000000000000000E+000
-2.5959411E-001	0.000000000000000E+000
-2.5952539E-001	0.000000000000000E+000
-2.5959793E-001	0.000000000000000E+000
-2.5975066E-001	0.000000000000000E+000
-2.5974685E-001	0.000000000000000E+000
-2.5970486E-001	0.000000000000000E+000
-2.5922373E-001	0.000000000000000E+000
-2.5942612E-001	0.000000000000000E+000
-2.5944519E-001	0.000000000000000E+000
-2.6451209E-001	0.000000000000000E+000
-2.6453117E-001	0.000000000000000E+000
-7.8910738E-001	-3.675843404686972E+000
-7.8875160E-001	-3.658669736631808E+000
-7.8776711E-001	-3.636263310909250E+000
-7.8674734E-001	-3.619240796676387E+000
-7.8572339E-001	-3.605393096702187E+000
-7.8487480E-001	-3.593284165417707E+000
-7.8368407E-001	-3.582884629015567E+000
-7.8286833E-001	-3.573534136504399E+000
-7.8179407E-001	-3.564852576564860E+000
-7.8079253E-001	-3.556183624046817E+000
-7.7985203E-001	-3.547953203029024E+000
-7.7883881E-001	-3.539855331734373E+000
-7.7782953E-001	-3.531921818852421E+000
-7.7685249E-001	-3.523600938293725E+000
-7.7577287E-001	-3.515918906640124E+000
-7.7481896E-001	-3.508179850048499E+000
-7.7379858E-001	-3.500528613241951E+000
-7.7283472E-001	-3.492800973079833E+000
-7.7183801E-001	-3.485170683926995E+000
-7.7081305E-001	-3.477231662877841E+000
-7.6981556E-001	-3.469633081444982E+000
-7.6883167E-001	-3.461906060576439E+000
-7.6781863E-001	-3.454264329303584E+000
-7.6688719E-001	-3.446799610499980E+000
-7.6585430E-001	-3.439038055362531E+000
-7.6479417E-001	-3.431344758659195E+000
-7.6374614E-001	-3.423842711581127E+000
-7.6283365E-001	-3.416101654922517E+000
-7.6187038E-001	-3.408307000514775E+000
-7.6084179E-001	-3.400895672263914E+000
-7.5983071E-001	-3.393133819103241E+000
-7.5883728E-001	-3.385477204301679E+000
-7.5783330E-001	-3.377862547834710E+000
-7.5691777E-001	-3.370310566491552E+000
-7.5586778E-001	-3.362611806766999E+000
-7.5470084E-001	-3.355263352394118E+000
-7.5387639E-001	-3.347568369685433E+000
-7.5281906E-001	-3.339831709861770E+000
-7.5185490E-001	-3.332241565540983E+000
-7.5093478E-001	-3.324582562153083E+000
-7.4976969E-001	-3.317025821518030E+000
-7.4883711E-001	-3.309441469333791E+000
-7.4781197E-001	-3.301751512986371E+000
-7.4685758E-001	-3.294211482008294E+000
-7.4578530E-001	-3.286638485060791E+000
-7.4482626E-001	-3.279023768410767E+000
-7.4382210E-001	-3.271301211582291E+000
-7.4289721E-001	-3.263896092220577E+000
-7.4189395E-001	-3.256348836453609E+000
-7.4085188E-001	-3.248642264692879E+000
-7.3990947E-001	-3.241238668009096E+000
-7.3887235E-001	-3.233807401687059E+000
-7.3780870E-001	-3.226208312643905E+000
-7.3685753E-001	-3.219162406744779E+000
-7.3593646E-001	-3.211358623059382E+000
-7.3488182E-001	-3.203791319772037E+000
-7.3386991E-001	-3.196219564587992E+000
-7.3283356E-001	-3.188930290882499E+000
-7.3180693E-001	-3.181083790130110E+000
-7.3090184E-001	-3.173595196119066E+000
-7.2982264E-001	-3.166331061225621E+000
-7.2891587E-001	-3.158642454279786E+000
-7.2782558E-001	-3.151220128492081E+000
-7.2697055E-001	-3.143871798352391E+000
-7.2584134E-001	-3.136370239986313E+000
-7.2483993E-001	-3.128926849475619E+000
-7.2396028E-001	-3.121558291233782E+000
-7.2282636E-001	-3.114037036343858E+000
-7.2191149E-001	-3.106615464720448E+000
-7.2086543E-001	-3.098751257932488E+000
-7.1988583E-001	-3.091336386623212E+000
-7.1880692E-001	-3.083890787153337E+000
-7.1784139E-001	-3.076310555664449E+000
-7.1693110E-001	-3.068799841459153E+000
-7.1591479E-001	-3.061520984051413E+000
-7.1480209E-001	-3.053901177515918E+000
-7.1388888E-001	-3.046231346273871E+000
-7.1293652E-001	-3.038859044236176E+000
-7.1192706E-001	-3.031645630754909E+000
-7.1078175E-001	-3.024163729614676E+000
-7.0989674E-001	-3.016660584343811E+000
-7.0888120E-001	-3.009209465033102E+000
-7.0779800E-001	-3.001817345343255E+000
-7.0688581E-001	-2.994223742297407E+000
-7.0591402E-001	-2.986915445282833E+000
-7.0485216E-001	-2.979310842851788E+000
-7.0385730E-001	-2.972056530416005E+000
-7.0286781E-001	-2.964750812985216E+000
-7.0187747E-001	-2.957631766796112E+000
-7.0087856E-001	-2.949939000385775E+000
-6.9991761E-001	-2.942857345630671E+000
-6.9882816E-001	-2.935301929988256E+000
-6.9786322E-001	-2.927791002172000E+000
-6.9692564E-001	-2.920538188634669E+000
-6.9593412E-001	-2.912958176875552E+000
-6.9494271E-001	-2.905724849965843E+000
-6.9387984E-001	-2.898489990660060E+000
-6.9283587E-001	-2.890951546253966E+000
-6.9187123E-001	-2.883520379110614E+000
-6.9084924E-001	-2.876133128352805E+000
-6.8986958E-001	-2.868775940603676E+000
-6.8887371E-001	-2.861230765741823E+000
-6.8793482E-001	-2.853938078438794E+000
-6.8691957E-001	-2.846489690520141E+000
-6.8587500E-001	-2.839136580713230E+000
-6.8496859E-001	-2.831584583278051E+000
-6.8375969E-001	-2.824385091110528E+000
-6.8285602E-001	-2.816985597112112E+000
-6.8192309E-001	-2.809877495522848E+000
-6.8094325E-001	-2.802318653574687E+000
-6.7988932E-001	-2.794986881987370E+000
-6.7873889E-001	-2.787482587551636E+000
-6.7790776E-001	-2.780235095432509E+000
-6.7686439E-001	-2.773142861826372E+000
-6.7587113E-001	-2.765924165094344E+000
-6.7487389E-001	-2.758866848769010E+000
-6.7385769E-001	-2.750813009668718E+000
-6.7291570E-001	-2.743744663066334E+000
-6.7185700E-001	-2.736495478561633E+000
-6.7095208E-001	-2.729450629006990E+000
-6.6977859E-001	-2.722246708693334E+000
-6.6885203E-001	-2.714807057270299E+000
-6.6792554E-001	-2.707268640112311E+000
-6.6686094E-001	-2.700068059066943E+000
-6.6590214E-001	-2.692360897582994E+000
-6.6490209E-001	-2.685344890807585E+000
-6.6388315E-001	-2.677934816038153E+000
-6.6292369E-001	-2.670922817731352E+000
-6.6184628E-001	-2.663493229641247E+000
-6.6086394E-001	-2.656301731588659E+000
-6.5978271E-001	-2.649001124280479E+000
-6.5884680E-001	-2.641300978031971E+000
-6.5794462E-001	-2.634440677585429E+000
-6.5686637E-001	-2.627057259005522E+000
-6.5597320E-001	-2.619879408869032E+000
-6.5482485E-001	-2.612664440439797E+000
-6.5384907E-001	-2.605236068919849E+000
-6.5281230E-001	-2.598256898375652E+000
-6.5195453E-001	-2.590929779741490E+000
-6.5080994E-001	-2.583809860878528E+000
-6.4989257E-001	-2.576439409581834E+000
-6.4885473E-001	-2.569240282255194E+000
-6.4789081E-001	-2.562103428498439E+000
-6.4691561E-001	-2.554822177681842E+000
-6.4595264E-001	-2.547791494263556E+000
-6.4491665E-001	-2.540380638782622E+000
-6.4385754E-001	-2.533338721921545E+000
-6.4283675E-001	-2.526172592408120E+000
-6.4191669E-001	-2.518816652673255E+000
-6.4082032E-001	-2.511536334407252E+000
-6.3985670E-001	-2.504268709984089E+000
-6.3884914E-001	-2.496838590061214E+000
-6.3777488E-001	-2.489738153741229E+000
-6.3690501E-001	-2.482701259354741E+000
-6.3595170E-001	-2.475629615838887E+000
-6.3490057E-001	-2.468425229821374E+000
-6.3390422E-001	-2.461113157647620E+000
-6.3285249E-001	-2.453955441161433E+000
-6.3185662E-001	-2.446487642789302E+000
-6.3085806E-001	-2.439604021884778E+000
-6.2981421E-001	-2.432359629483138E+000
-6.2889725E-001	-2.424892146710224E+000
-6.2785286E-001	-2.417970909564586E+000
-6.2685138E-001	-2.410907506666797E+000
-6.2590873E-001	-2.403894501799741E+000
-6.2488204E-001	-2.396638094551022E+000
-6.2386626E-001	-2.389422358403134E+000
-6.2285459E-001	-2.382008601669913E+000
-6.2192833E-001	-2.375188123848705E+000
-6.2087023E-001	-2.368173547231219E+000
-6.1994964E-001	-2.361022683757314E+000
-6.1888140E-001	-2.354064000149567E+000
-6.1802244E-001	-2.346831098940559E+000
-6.1692584E-001	-2.339637518756919E+000
-6.1586559E-001	-2.332567459179296E+000
-6.1491746E-001	-2.325154795173018E+000
-6.1402810E-001	-2.318164632000315E+000
-6.1286205E-001	-2.311048042167121E+000
-6.1198622E-001	-2.304059268424953E+000
-6.1098349E-001	-2.297146372773025E+000
-6.0992432E-001	-2.290063438592139E+000
-6.0893226E-001	-2.283056696043403E+000
-6.0794920E-001	-2.275902307695823E+000
-6.0697484E-001	-2.268844077708543E+000
-6.0584760E-001	-2.261747540416138E+000
-6.0488421E-001	-2.254817786592028E+000
-6.0388929E-001	-2.247801807743528E+000
-6.0285246E-001	-2.240748928163075E+000
-6.0194135E-001	-2.233526501114717E+000
-6.0095304E-001	-2.226665416801417E+000
-5.9992129E-001	-2.219415844454506E+000
-5.9895033E-001	-2.212342701852329E+000
-5.9795821E-001	-2.205266787774036E+000
-5.9701067E-001	-2.198334231730755E+000
-5.9602231E-001	-2.191284959790885E+000
-5.9491920E-001	-2.184248635338410E+000
-5.9396070E-001	-2.177277302956806E+000
-5.9291852E-001	-2.170259077791826E+000
-5.9195334E-001	-2.163358855026743E+000
-5.9093630E-001	-2.156039745306717E+000
-5.8991098E-001	-2.148958428314449E+000
-5.8896101E-001	-2.142304675998506E+000
-5.8792639E-001	-2.135030097626732E+000
-5.8687198E-001	-2.127799540482185E+000
-5.8597404E-001	-2.120835336822054E+000
-5.8493000E-001	-2.113723944702951E+000
-5.8388251E-001	-2.106870941541811E+000
-5.8291435E-001	-2.100031923640664E+000
-5.8192044E-001	-2.093149610678768E+000
-5.8091080E-001	-2.086118780628404E+000
-5.7992172E-001	-2.079021664405312E+000
-5.7895058E-001	-2.072363903219397E+000
-5.7794297E-001	-2.065125744375923E+000
-5.7698774E-001	-2.058133647121771E+000
-5.7593048E-001	-2.051231302173520E+000
-5.7491225E-001	-2.044303363120115E+000
-5.7394600E-001	-2.037547162285552E+000
-5.7296091E-001	-2.030330890814570E+000
-5.7194841E-001	-2.023193376759695E+000
-5.7097375E-001	-2.016424636322038E+000
-5.6990463E-001	-2.009458309884132E+000
-5.6895632E-001	-2.002193042525548E+000
-5.6801957E-001	-1.995722310410612E+000
-5.6688875E-001	-1.988635543525692E+000
-5.6577891E-001	-1.981707641096030E+000
-5.6489587E-001	-1.974674977362159E+000
-5.6385130E-001	-1.967578989728061E+000
-5.6283921E-001	-1.960804603166048E+000
-5.6186122E-001	-1.953815532573415E+000
-5.6097847E-001	-1.946952929099401E+000
-5.6001544E-001	-1.939944377651922E+000
-5.5896538E-001	-1.933175752940990E+000
-5.5792105E-001	-1.925342497174377E+000
-5.5691069E-001	-1.919092843929938E+000
-5.5600363E-001	-1.912418911774580E+000
-5.5488086E-001	-1.905363337309273E+000
-5.5388790E-001	-1.898403566744591E+000
-5.5290818E-001	-1.891721656112466E+000
-5.5196661E-001	-1.884781062327047E+000
-5.5090857E-001	-1.877750249924480E+000
-5.4985368E-001	-1.870910273301582E+000
-5.4887974E-001	-1.863805654148254E+000
-5.4788405E-001	-1.857138974247151E+000
-5.4694307E-001	-1.850169963114535E+000
-5.4601353E-001	-1.843134586457857E+000
-5.4498976E-001	-1.836228446552056E+000
-5.4391760E-001	-1.829495017703650E+000
-5.4301679E-001	-1.822736075630896E+000
-5.4187471E-001	-1.815637525860911E+000
-5.4082519E-001	-1.808666151514160E+000
-5.3992164E-001	-1.802073800453424E+000
-5.3882062E-001	-1.795483057973559E+000
-5.3794384E-001	-1.788277901869492E+000
-5.3691244E-001	-1.781595074192239E+000
-5.3595871E-001	-1.774620458483689E+000
-5.3495550E-001	-1.767901451687731E+000
-5.3394789E-001	-1.761037929742423E+000
-5.3298336E-001	-1.754441847955733E+000
-5.3193218E-001	-1.747401403808588E+000
-5.3091556E-001	-1.740735366388606E+000
-5.3004944E-001	-1.733912238092334E+000
-5.2896327E-001	-1.726802558203920E+000
-5.2785754E-001	-1.720153889170398E+000
-5.2693522E-001	-1.713191449366242E+000
-5.2601975E-001	-1.706288511852364E+000
-5.2495247E-001	-1.699574564066195E+000
-5.2382541E-001	-1.692717841653913E+000
-5.2291399E-001	-1.685554464454171E+000
-5.2195150E-001	-1.679063623426128E+000
-5.2097416E-001	-1.672596076848329E+000
-5.1994705E-001	-1.665849267916975E+000
-5.1892143E-001	-1.659241505795059E+000
-5.1792300E-001	-1.652399281660715E+000
-5.1695836E-001	-1.645582872143763E+000
-5.1593745E-001	-1.638743450520220E+000
-5.1496017E-001	-1.631978753540251E+000
-5.1392746E-001	-1.625191493688355E+000
-5.1307458E-001	-1.618746357935446E+000
-5.1191300E-001	-1.611956662325944E+000
-5.1090258E-001	-1.605151562341058E+000
-5.0988626E-001	-1.598512104815907E+000
-5.0901258E-001	-1.591995056856561E+000
-5.0793439E-001	-1.584630203309203E+000
-5.0686622E-001	-1.577750980302142E+000
-5.0594354E-001	-1.571544493238129E+000
-5.0490415E-001	-1.564923999300137E+000
-5.0399637E-001	-1.558114752863293E+000
-5.0287187E-001	-1.551376620238585E+000
-5.0184125E-001	-1.544627869471586E+000
-5.0088978E-001	-1.537841618750946E+000
-4.9994811E-001	-1.531163310839071E+000
-4.9894729E-001	-1.524516298695083E+000
-4.9793249E-001	-1.517911573389060E+000
-4.9692255E-001	-1.511081560480372E+000
-4.9596417E-001	-1.504466236765452E+000
-4.9486068E-001	-1.497629453324606E+000
-4.9385911E-001	-1.491112836252875E+000
-4.9300537E-001	-1.484716961229296E+000
-4.9202091E-001	-1.477964356265673E+000
-4.9091616E-001	-1.471008365502051E+000
-4.8993444E-001	-1.464536870519318E+000
-4.8895678E-001	-1.457502169327608E+000
-4.8792663E-001	-1.450809075674243E+000
-4.8699838E-001	-1.444279462650972E+000
-4.8586497E-001	-1.437702857371839E+000
-4.8495367E-001	-1.431038025186435E+000
-4.8387817E-001	-1.424208789787910E+000
-4.8289436E-001	-1.417792965416552E+000
-4.8194310E-001	-1.411010077247056E+000
-4.8101872E-001	-1.404420650115718E+000
-4.7995105E-001	-1.397734088064347E+000
-4.7894505E-001	-1.390947937906232E+000
-4.7795069E-001	-1.384540087095011E+000
-4.7691977E-001	-1.377766476047261E+000
-4.7586548E-001	-1.371227373825455E+000
-4.7498199E-001	-1.364626897429978E+000
-4.7407791E-001	-1.357978977676900E+000
-4.7285178E-001	-1.351143728131354E+000
-4.7199291E-001	-1.344443362482171E+000
-4.7092143E-001	-1.338037986722258E+000
-4.6987492E-001	-1.331395189975275E+000
-4.6888307E-001	-1.324838856166158E+000
-4.6794215E-001	-1.318243622089978E+000
-4.6692458E-001	-1.311877239006478E+000
-4.6603742E-001	-1.304930420109521E+000
-4.6479970E-001	-1.298604950584739E+000
-4.6395838E-001	-1.291988651923546E+000
-4.6294799E-001	-1.285445095350344E+000
-4.6201742E-001	-1.278840167102983E+000
-4.6095163E-001	-1.272354030678825E+000
-4.6000090E-001	-1.265859726540467E+000
-4.5894644E-001	-1.259107481550288E+000
-4.5805031E-001	-1.252679487808949E+000
-4.5692003E-001	-1.246249930312237E+000
-4.5604303E-001	-1.240044590085740E+000
-4.5494032E-001	-1.233063015798113E+000
-4.5397928E-001	-1.226501848272706E+000
-4.5296338E-001	-1.219931443118387E+000
-4.5194677E-001	-1.213601438057900E+000
-4.5092806E-001	-1.207035208879798E+000
-4.5003384E-001	-1.200468400286299E+000
-4.4898662E-001	-1.194051590337345E+000
-4.4786194E-001	-1.187515247751161E+000
-4.4704208E-001	-1.180990835030876E+000
-4.4598243E-001	-1.174253560633202E+000
-4.4486538E-001	-1.168051277045855E+000
-4.4390997E-001	-1.161782754930078E+000
-4.4297928E-001	-1.155023817716921E+000
-4.4192302E-001	-1.148368914370177E+000
-4.4101807E-001	-1.142058152981379E+000
-4.4005433E-001	-1.135597911250404E+000
-4.3894556E-001	-1.129183287421861E+000
-4.3811128E-001	-1.122687349302903E+000
-4.3697786E-001	-1.115947356894229E+000
-4.3593037E-001	-1.109709729750952E+000
-4.3500447E-001	-1.103275755489312E+000
-4.3392244E-001	-1.096590286519698E+000
-4.3292820E-001	-1.090058893103294E+000
-4.3202066E-001	-1.083910931177710E+000
-4.3095896E-001	-1.077406042499916E+000
-4.2993248E-001	-1.070832809364351E+000
-4.2902774E-001	-1.064571524257218E+000
-4.2802972E-001	-1.057929029757220E+000
-4.2694318E-001	-1.051637141102994E+000
-4.2601928E-001	-1.045053503635920E+000
-4.2498717E-001	-1.038694396615030E+000
-4.2392227E-001	-1.031858438556947E+000
-4.2293352E-001	-1.025682252251670E+000
-4.2191365E-001	-1.019196003537481E+000
-4.2094380E-001	-1.012850040638885E+000
-4.1998813E-001	-1.006554741625358E+000
-4.1904059E-001	-1.000126503821882E+000
-4.1790634E-001	-9.936531126775132E-001
-4.1703236E-001	-9.871330169534529E-001
-4.1594350E-001	-9.809461531263821E-001
-4.1496348E-001	-9.742741242603046E-001
-4.1396499E-001	-9.683969630819056E-001
-4.1301259E-001	-9.622540678139089E-001
-4.1197699E-001	-9.558850522670497E-001
-4.1099554E-001	-9.490184922971716E-001
-4.0984550E-001	-9.425551187660934E-001
-4.0889499E-001	-9.361207443806858E-001
-4.0797576E-001	-9.300179491425313E-001
-4.0693894E-001	-9.227685079806420E-001
-4.0591925E-001	-9.165329643421707E-001
-4.0503508E-001	-9.108522374402135E-001
-4.0399399E-001	-9.043167466642696E-001
-4.0303430E-001	-8.979893656516538E-001
-4.0199801E-001	-8.915727821163282E-001
-4.0095377E-001	-8.854561358414310E-001
-3.9994761E-001	-8.790098169335607E-001
-3.9897367E-001	-8.725791666059717E-001
-3.9792311E-001	-8.662789992436206E-001
-3.9699143E-001	-8.599709646293476E-001
-3.9592585E-001	-8.536680056985411E-001
-3.9494082E-001	-8.471949281239937E-001
-3.9409444E-001	-8.408139571547508E-001
-3.9295650E-001	-8.348550122384086E-001
-3.9201134E-001	-8.286615603223989E-001
-3.9093095E-001	-8.223573180536441E-001
-3.8999823E-001	-8.159439296801487E-001
-3.8902050E-001	-8.101983727128412E-001
-3.8796121E-001	-8.040039322718435E-001
-3.8698837E-001	-7.981824692078856E-001
-3.8586602E-001	-7.921592093728238E-001
-3.8489041E-001	-7.857021413467535E-001
-3.8396010E-001	-7.792410409404891E-001
-3.8296792E-001	-7.727454678603891E-001
-3.8204771E-001	-7.666392690605601E-001
-3.8105860E-001	-7.604861657977935E-001
-3.8008568E-001	-7.536919096277814E-001
-3.7894216E-001	-7.476694549399383E-001
-3.7798539E-001	-7.412998977213938E-001
-3.7701792E-001	-7.350318874059987E-001
-3.7594879E-001	-7.289165766150862E-001
-3.7492344E-001	-7.226772162226274E-001
-3.7392998E-001	-7.164370352747262E-001
-3.7299410E-001	-7.098744883443491E-001
-3.7197068E-001	-7.036824064373004E-001
-3.7098607E-001	-6.976209548474444E-001
-3.6999205E-001	-6.912150492684690E-001
-3.6897418E-001	-6.848976605110877E-001
-3.6790937E-001	-6.786403002010433E-001
-3.6698177E-001	-6.721985807849302E-001
-3.6599344E-001	-6.661795554182710E-001
-3.6501259E-001	-6.598376785577447E-001
-3.6402893E-001	-6.540802161864652E-001
-3.6303532E-001	-6.475654785579810E-001
-3.6200041E-001	-6.414598730841146E-001
-3.6098200E-001	-6.353433699243576E-001
-3.6004287E-001	-6.290277907963775E-001
-3.5890120E-001	-6.231204215437152E-001
-3.5802662E-001	-6.168901925386893E-001
-3.5688615E-001	-6.107066189525305E-001
-3.5597661E-001	-6.044252428605592E-001
-3.5496256E-001	-5.982449696210823E-001
-3.5396540E-001	-5.919658672064543E-001
-3.5299605E-001	-5.859683024248588E-001
-3.5192156E-001	-5.796201277302586E-001
-3.5110298E-001	-5.732262874780982E-001
-3.5002583E-001	-5.676367896850472E-001
-3.4898120E-001	-5.611199291628513E-001
-3.4803942E-001	-5.554646795132623E-001
-3.4692276E-001	-5.492786160773678E-001
-3.4594038E-001	-5.431009517605458E-001
-3.4500134E-001	-5.367931554576870E-001
-3.4402913E-001	-5.308156208721577E-001
-3.4300205E-001	-5.245329260287157E-001
-3.4191489E-001	-5.185842373994776E-001
-3.4098110E-001	-5.127935533032391E-001
-3.4010679E-001	-5.065009127818358E-001
-3.3899876E-001	-5.004046520701162E-001
-3.3791074E-001	-4.942223535919625E-001
-3.3697245E-001	-4.880171106997605E-001
-3.3592865E-001	-4.820005401830976E-001
-3.3499891E-001	-4.758904838451641E-001
-3.3399081E-001	-4.697626369111685E-001
-3.3295184E-001	-4.634262174367922E-001
-3.3201236E-001	-4.578429033496878E-001
-3.3101237E-001	-4.516488282930848E-001
-3.2982108E-001	-4.455509074173420E-001
-3.2864016E-001	-4.386778692542395E-001
-3.2778350E-001	-4.329003922722796E-001
-3.2666099E-001	-4.266034328827149E-001
-3.2570028E-001	-4.207108081490909E-001
-3.2459092E-001	-4.144857976498937E-001
-3.2385966E-001	-4.089172758437978E-001
-3.2256863E-001	-4.025970041337925E-001
-3.2173362E-001	-3.966909664781070E-001
-3.2063809E-001	-3.907752198822525E-001
-3.1970617E-001	-3.846357011546688E-001
-3.1879491E-001	-3.783954175117135E-001
-3.1777543E-001	-3.726433839097070E-001
-3.1661719E-001	-3.665646467081931E-001
-3.1567198E-001	-3.599026608378306E-001
-3.1471103E-001	-3.541960051904125E-001
-3.1381997E-001	-3.484669046085154E-001
-3.1268588E-001	-3.424817921455810E-001
-3.1172386E-001	-3.367434067099735E-001
-3.1068081E-001	-3.306733017516725E-001
-3.0983317E-001	-3.248176343601061E-001
-3.0873114E-001	-3.188091017374841E-001
-3.0767861E-001	-3.127374701417884E-001
-3.0673417E-001	-3.067693676868517E-001
-3.0559489E-001	-3.009150053753900E-001
-3.0476910E-001	-2.949363852330342E-001
-3.0381891E-001	-2.889593263950061E-001
-3.0277866E-001	-2.830312319996735E-001
-3.0157641E-001	-2.771737832362113E-001
-3.0074242E-001	-2.714343891927484E-001
-2.9967162E-001	-2.654654735837285E-001
-2.9865021E-001	-2.595258578927440E-001
-2.9783905E-001	-2.537053791047239E-001
-2.9670691E-001	-2.475501352369225E-001
-2.9593730E-001	-2.417368563980593E-001
-2.9480731E-001	-2.356338418537267E-001
-2.9363236E-001	-2.301216622193660E-001
-2.9279658E-001	-2.238603610685059E-001
-2.9164261E-001	-2.179964988457934E-001
-2.9082868E-001	-2.120879291453290E-001
-2.8970701E-001	-2.064844532354962E-001
-2.8870994E-001	-2.001059610672575E-001
-2.8776258E-001	-1.944184348815012E-001
-2.8672203E-001	-1.884526932931734E-001
-2.8576815E-001	-1.825644149858920E-001
-2.8460994E-001	-1.766131430933324E-001
-2.8370148E-001	-1.710225222635589E-001
-2.8275850E-001	-1.649127037057445E-001
-2.8174388E-001	-1.593201738885709E-001
-2.8064647E-001	-1.528004666907359E-001
-2.7981710E-001	-1.471906443540424E-001
-2.7859041E-001	-1.416106972394994E-001
-2.7779448E-001	-1.358439301636223E-001
-2.7657646E-001	-1.301337349642482E-001
-2.7567473E-001	-1.243681732944586E-001
-2.7484331E-001	-1.185010489512734E-001
-2.7396730E-001	-1.128223048419585E-001
-2.7284133E-001	-1.069344920451163E-001
-2.7179641E-001	-1.011221180393100E-001
-2.7077264E-001	-9.523191532396069E-002
-2.6996082E-001	-8.950753716096571E-002
-2.6871774E-001	-8.362310572182619E-002
-2.6754427E-001	-7.778627923862214E-002
-2.6682138E-001	-7.204723301240135E-002
-2.6580700E-001	-6.649824170045393E-002
-2.6464662E-001	-6.054138803544148E-002
-2.6382911E-001	-5.472548793207987E-002
-2.6270545E-001	-4.891095746731428E-002
-2.6144609E-001	-4.267331989177031E-002
-2.6046059E-001	-3.611729724359841E-002
-2.5947157E-001	-3.018479876185737E-002
-2.5838464E-001	-2.468605664843265E-002
-2.5743794E-001	-1.893719628424825E-002
-2.5655437E-001	-1.318225696040487E-002
-2.5552303E-001	-7.632038390578633E-003
-2.5441176E-001	-1.502953176761728E-003
-2.5356677E-001	3.585829638285320E-003
-2.5238079E-001	9.209351936415616E-003
-2.5143450E-001	1.536573437588071E-002
-2.5035283E-001	2.106399877703988E-002
-2.4948822E-001	2.681521175394733E-002
-2.4845111E-001	3.243253022693238E-002
-2.4765968E-001	3.841503456890305E-002
-2.4641937E-001	4.368572409644156E-002
-2.4546874E-001	5.012358427548852E-002
-2.4443893E-001	5.567292648333089E-002
-2.4339887E-001	6.078726207596019E-002
-2.4249165E-001	6.655215606619080E-002
-2.4130942E-001	7.217291050969987E-002
-2.4030711E-001	7.774060248845702E-002
-2.3932499E-001	8.332908781645343E-002
-2.3829064E-001	8.893255556554180E-002
-2.3728220E-001	9.476402037156140E-002
-2.3633748E-001	1.001716349905055E-001
-2.3532701E-001	1.060297446566876E-001
-2.3420987E-001	1.121946578302110E-001
-2.3308963E-001	1.186415674850134E-001
-2.3212940E-001	1.245004426584480E-001
-2.3115359E-001	1.296088225725620E-001
-2.3031317E-001	1.351570779751630E-001
-2.2897805E-001	1.406726943570424E-001
-2.2800542E-001	1.466940541372259E-001
-2.2702475E-001	1.520109624315460E-001
-2.2630990E-001	1.577663980596871E-001
-2.2508866E-001	1.632195747181500E-001
-2.2401869E-001	1.687352172752927E-001
-2.2310802E-001	1.744325498498434E-001
-2.2212526E-001	1.798130061333971E-001
-2.2123218E-001	1.854321084468180E-001
-2.2001225E-001	1.909055732432059E-001
-2.1915171E-001	1.967597371477101E-001
-2.1808250E-001	2.017972622825594E-001
-2.1708636E-001	2.076596818105498E-001
-2.1635738E-001	2.130422591210450E-001
-2.1492521E-001	2.186764300007513E-001
-2.1412167E-001	2.243667388403862E-001
-2.1327183E-001	2.296165506912538E-001
-2.1196477E-001	2.352512573685370E-001
-2.1120071E-001	2.406275776663316E-001
-2.0990840E-001	2.465770769182116E-001
-2.0922515E-001	2.519648176169502E-001
-2.0796637E-001	2.571910892233815E-001
-2.0698826E-001	2.625063443498412E-001
-2.0614633E-001	2.677846875869574E-001
-2.0502737E-001	2.737571924441939E-001
-2.0401734E-001	2.789734846324836E-001
-2.0312098E-001	2.845395506463113E-001
-2.0198631E-001	2.899798379383154E-001
-2.0112267E-001	2.953284966451352E-001
-2.0010707E-001	3.007026915610942E-001
-1.9910093E-001	3.061319065659687E-001
-1.9821119E-001	3.114696833589488E-001
-1.9721662E-001	3.167857863698869E-001
-1.9592541E-001	3.223822710483716E-001
-1.9511385E-001	3.277880499475327E-001
-1.9407859E-001	3.331736002324364E-001
-1.9321463E-001	3.385802201443801E-001
-1.9208966E-001	3.440649587933269E-001
-1.9117290E-001	3.496908978041686E-001
-1.9012371E-001	3.548843412211635E-001
-1.8911411E-001	3.604065313682039E-001
-1.8811378E-001	3.654129875616889E-001
-1.8711954E-001	3.710197902250085E-001
-1.8614550E-001	3.760669243724807E-001
-1.8518686E-001	3.817994145469523E-001
-1.8404053E-001	3.870887029226173E-001
-1.8309303E-001	3.923462733848453E-001
-1.8208641E-001	3.976965886713186E-001
-1.8127440E-001	4.029126878551850E-001
-1.8004708E-001	4.080175880046557E-001
-1.7905572E-001	4.135953056867487E-001
-1.7832074E-001	4.189196389030538E-001
-1.7715821E-001	4.244283550633501E-001
-1.7607555E-001	4.295627580334731E-001
-1.7498440E-001	4.352478836835525E-001
-1.7402893E-001	4.408371106073554E-001
-1.7290959E-001	4.454807065841240E-001
-1.7208652E-001	4.504757847774925E-001
-1.7086515E-001	4.559573236183044E-001
-1.7000511E-001	4.611835911594069E-001
-1.6922067E-001	4.664352831465229E-001
-1.6800429E-001	4.715567967310594E-001
-1.6725594E-001	4.770000075438512E-001
-1.6607651E-001	4.822892801905132E-001
-1.6496794E-001	4.876066596506963E-001
-1.6391663E-001	4.928924673823296E-001
-1.6301149E-001	4.979443974379016E-001
-1.6198288E-001	5.031493129223659E-001
-1.6117977E-001	5.089950358012203E-001
-1.6007671E-001	5.135940180884457E-001
-1.5917495E-001	5.190360556910041E-001
-1.5811074E-001	5.239582177665492E-001
-1.5714118E-001	5.292337128062794E-001
-1.5608108E-001	5.345041893974516E-001
-1.5515833E-001	5.398001717748468E-001
-1.5405825E-001	5.449874448067207E-001
-1.5306123E-001	5.503501992120778E-001
-1.5199591E-001	5.551862000591230E-001
-1.5117295E-001	5.601214090442941E-001
-1.4998305E-001	5.654569840817523E-001
-1.4917675E-001	5.706817948569860E-001
-1.4814079E-001	5.757319874890068E-001
-1.4706737E-001	5.809644611069480E-001
-1.4608862E-001	5.858931588353951E-001
-1.4495736E-001	5.911809131043775E-001
-1.4426368E-001	5.963820742650165E-001
-1.4317885E-001	6.013050046921884E-001
-1.4209552E-001	6.065884887885260E-001
-1.4105694E-001	6.115571145934071E-001
-1.3997214E-001	6.167219831711726E-001
-1.3900815E-001	6.228672881567383E-001
-1.3798279E-001	6.273523064123268E-001
-1.3710842E-001	6.320775937013092E-001
-1.3609354E-001	6.376283816443227E-001
-1.3505840E-001	6.423737209428229E-001
-1.3407116E-001	6.475558755574387E-001
-1.3306539E-001	6.524519838746485E-001
-1.3197979E-001	6.576435763940758E-001
-1.3103627E-001	6.620573206908169E-001
-1.3019489E-001	6.673843883862247E-001
-1.2890543E-001	6.725925780418835E-001
-1.2823682E-001	6.774269295511424E-001
-1.2707441E-001	6.827335346105725E-001
-1.2625384E-001	6.872380401387272E-001
-1.2515524E-001	6.924353820720219E-001
-1.2409266E-001	6.975110371592486E-001
-1.2299980E-001	7.023979098432580E-001
-1.2192495E-001	7.072878625519863E-001
-1.2097633E-001	7.124162862773988E-001
-1.2008984E-001	7.173372716815400E-001
-1.1922076E-001	7.224829403890496E-001
-1.1799334E-001	7.275976605861518E-001
-1.1702375E-001	7.323565118152811E-001
-1.1618033E-001	7.374356234515176E-001
-1.1527454E-001	7.427925806927735E-001
-1.1417020E-001	7.477596640862796E-001
-1.1302557E-001	7.522704008690722E-001
-1.1212099E-001	7.573090661334536E-001
-1.1123034E-001	7.620517401783573E-001
-1.1022211E-001	7.672762650030620E-001
-1.0917088E-001	7.721523564731054E-001
-1.0815449E-001	7.767487425633064E-001
-1.0709386E-001	7.819083878701476E-001
-1.0623934E-001	7.869034152418983E-001
-1.0500610E-001	7.916422246230930E-001
-1.0409416E-001	7.970144274058173E-001
-1.0307065E-001	8.017843100030202E-001
-1.0214896E-001	8.062013302136348E-001
-1.0101131E-001	8.111168143373976E-001
-1.0012855E-001	8.158321324120803E-001
-9.9005871E-002	8.208885991738892E-001
-9.7992733E-002	8.256203897849268E-001
-9.7205527E-002	8.310179570974725E-001
-9.5953554E-002	8.352551631353560E-001
-9.5166557E-002	8.404233850262806E-001
-9.3874715E-002	8.450524439966145E-001
-9.3006462E-002	8.498025473069268E-001
-9.2120469E-002	8.546757419254529E-001
-9.1065943E-002	8.595910466931507E-001
-9.0095647E-002	8.644013775995454E-001
-8.9150734E-002	8.692048976350470E-001
-8.8007696E-002	8.740325312095649E-001
-8.7017685E-002	8.788196058184958E-001
-8.5983239E-002	8.837322618698449E-001
-8.4939264E-002	8.883109492836176E-001
-8.4083758E-002	8.930912199947567E-001
-8.3102249E-002	8.977008716105495E-001
-8.2017213E-002	9.024975644769491E-001
-8.1031457E-002	9.071774130894088E-001
-8.0120735E-002	9.118204388771893E-001
-7.9167701E-002	9.164501515527608E-001
-7.8137822E-002	9.211935890769514E-001
-7.6966770E-002	9.260090180476048E-001
-7.5910069E-002	9.303346610179730E-001
-7.5017221E-002	9.351055606923735E-001
-7.4120045E-002	9.401684206768284E-001
-7.3153049E-002	9.447349406502870E-001
-7.1995042E-002	9.494908723842261E-001
-7.1090721E-002	9.544694476681692E-001
-7.0058741E-002	9.589673357981248E-001
-6.8908378E-002	9.638943222385903E-001
-6.8089440E-002	9.692073540648973E-001
-6.7181230E-002	9.731805110695184E-001
-6.6067353E-002	9.775859669402798E-001
-6.5081216E-002	9.823855467082705E-001
-6.4132951E-002	9.867463015295828E-001
-6.3147418E-002	9.914466006060474E-001
-6.2111799E-002	9.961113614513550E-001
-6.1062630E-002	1.000772033852559E+000
-6.0059682E-002	1.005486648253825E+000
-5.9062537E-002	1.010316292766397E+000
-5.8020085E-002	1.014495030459431E+000
-5.6943115E-002	1.019284752645980E+000
-5.6214809E-002	1.023898383721843E+000
-5.5157211E-002	1.028413971679075E+000
-5.3814232E-002	1.032793839496595E+000
-5.3031225E-002	1.037152764972745E+000
-5.2268673E-002	1.041865212635861E+000
-5.1107273E-002	1.046482293142216E+000
-4.9878627E-002	1.051095162075551E+000
-4.9215734E-002	1.055411421176458E+000
-4.8099943E-002	1.059832545066316E+000
-4.6978813E-002	1.064984070476893E+000
-4.6250191E-002	1.069273496391599E+000
-4.5106191E-002	1.073525764186074E+000
-4.4137426E-002	1.077832948740052E+000
-4.3009944E-002	1.082589714201511E+000
-4.2140651E-002	1.086977377533914E+000
-4.1085556E-002	1.091499423434135E+000
-4.0167224E-002	1.095802323409808E+000
-3.9007369E-002	1.101277959886399E+000
-3.7908919E-002	1.106563694775102E+000
-3.6820702E-002	1.111151311684534E+000
-3.5894584E-002	1.115822460054963E+000
-3.4967348E-002	1.120163217876796E+000
-3.3933438E-002	1.124512675459739E+000
-3.2850888E-002	1.130195515542631E+000
-3.1934567E-002	1.133307333897664E+000
-3.0942446E-002	1.137484544681183E+000
-2.9895181E-002	1.141850840414430E+000
-2.8841745E-002	1.146407222030341E+000
-2.7885474E-002	1.150605330036757E+000
-2.6799249E-002	1.154977995399072E+000
-2.5891053E-002	1.159176598958400E+000
-2.4791172E-002	1.163746719283084E+000
-2.3846438E-002	1.167973541242777E+000
-2.2938661E-002	1.172256338375588E+000
-2.2038182E-002	1.176865462075783E+000
-2.0889359E-002	1.180824024160092E+000
-1.9952333E-002	1.185096024225159E+000
-1.8809177E-002	1.189495470926719E+000
-1.7759662E-002	1.194169967988813E+000
-1.6818151E-002	1.198776020358009E+000
-1.5976006E-002	1.202541630301212E+000
-1.4872705E-002	1.206800843793937E+000
-1.3884004E-002	1.210913152606400E+000
-1.2957430E-002	1.215173253858532E+000
-1.1907246E-002	1.219522155654904E+000
-1.0851218E-002	1.223988388975464E+000
-9.9577373E-003	1.228226699486932E+000
-8.9177359E-003	1.232290050998753E+000
-7.9768915E-003	1.236611211603435E+000
-6.9716196E-003	1.240641796616490E+000
-5.8538956E-003	1.244763512666134E+000
-4.8724059E-003	1.249417647995329E+000
-3.8669219E-003	1.253443143433994E+000
-3.0016894E-003	1.257457234956449E+000
-1.9087739E-003	1.261757606847418E+000
-9.7180705E-004	1.265821592399371E+000
5.7078007E-005	1.270031090728518E+000
1.1159506E-003	1.274574414171550E+000
2.0558864E-003	1.279847945190134E+000
3.1300504E-003	1.285210577922875E+000
4.1109766E-003	1.289532223647399E+000
5.2023716E-003	1.293155207816101E+000
6.1082244E-003	1.294116382792752E+000
6.3652559E-003	1.295511682828266E+000
6.7279935E-003	1.292040586471558E+000