EC-Lab ASCII FILE
Nb header lines : 63                          

Linear Sweep Voltammetry

Run on channel : 6 (SN 13765)
User : 
Electrode connection : standard
Potential control : Ewe
Ewe ctrl range : min = -2.50 V, max = 2.50 V
Ewe,I filtering : <None>
Safety Limits :
	Do not start on E overload
Channel : Floating
Acquisition started on : 07/13/2026 15:41:07.352
Technique started on : 07/13/2026 15:41:08.349
Loaded Setting File :  C:\Users\EEM-620\Desktop\Wade\20260630\LSV 1mg MoS2 1_C06.mpr
Saved on :
	File : N719_0713-b-3_C06.mpr
	Directory : C:\Users\EEM-620\Desktop\Wade\abao\20260713\
	Host : 192.109.209.200
Device : VSP-300 (SN 0025)
Address : 192.109.209.129
EC-LAB for windows v11.62 (software)
Internet server v27.00 (firmware)
Command interpretor v12.02 (firmware)
Electrode material : Au/Pd
Initial state : 
Electrolyte : NaCl (0.2M)
Comments : Fe(CN)63-/Fe(CN)64- 5.10-3 M
Cable : ULC
Reference electrode : SCE Saturated Calomel Electrode (0.241 V)
Electrode surface area : 0.001 cm2
Characteristic mass : 0.001 g
Equivalent Weight : 0.000 g/eq.
Density : 0.000 g/cm3
Volume (V) : 0.001 cm3
Cycle Definition : Charge/Discharge alternance
tR (h:m:s)          0:00:5.0000         
dER/dt (mV/h)       0.0                 
dER (mV)            0                   
dtR (s)             0.0500              
dE/dt               10.000              
dE/dt unit          mV/s                
Ei (V)              -0.800              
vs.                 Ref                 
EL (V)              0.010               
vs.                 Ref                 
record              <I>                 
dI                  0.000               
unit dI             uA                  
tI (s)              0.0000              
step percent        50                  
N                   10                  
E range min (V)     -2.500              
E range max (V)     2.500               
I Range             Auto                
I Range min         Unset               
I Range max         Unset               
I Range init        Unset               
Bandwidth           8                   

Ewe/V	<I>/mA	
-6.0635239E-001	0.000000000000000E+000
-6.0614240E-001	0.000000000000000E+000
-6.0615385E-001	0.000000000000000E+000
-6.0669225E-001	0.000000000000000E+000
-6.0611564E-001	0.000000000000000E+000
-6.0625696E-001	0.000000000000000E+000
-6.0657007E-001	0.000000000000000E+000
-6.0634857E-001	0.000000000000000E+000
-6.0642111E-001	0.000000000000000E+000
-6.0623401E-001	0.000000000000000E+000
-6.0647458E-001	0.000000000000000E+000
-6.0634857E-001	0.000000000000000E+000
-6.0648602E-001	0.000000000000000E+000
-6.0689080E-001	0.000000000000000E+000
-6.0621113E-001	0.000000000000000E+000
-6.0640585E-001	0.000000000000000E+000
-6.0613859E-001	0.000000000000000E+000
-6.0607362E-001	0.000000000000000E+000
-6.0632569E-001	0.000000000000000E+000
-6.0600114E-001	0.000000000000000E+000
-6.0627604E-001	0.000000000000000E+000
-6.0686022E-001	0.000000000000000E+000
-6.0591710E-001	0.000000000000000E+000
-6.0583311E-001	0.000000000000000E+000
-6.0657001E-001	0.000000000000000E+000
-6.0639060E-001	0.000000000000000E+000
-6.0696715E-001	0.000000000000000E+000
-6.0645932E-001	0.000000000000000E+000
-6.0594767E-001	0.000000000000000E+000
-6.0627598E-001	0.000000000000000E+000
-6.0648602E-001	0.000000000000000E+000
-6.0608894E-001	0.000000000000000E+000
-6.0654712E-001	0.000000000000000E+000
-6.0594767E-001	0.000000000000000E+000
-6.0648984E-001	0.000000000000000E+000
-6.0642874E-001	0.000000000000000E+000
-6.0607749E-001	0.000000000000000E+000
-6.0632563E-001	0.000000000000000E+000
-6.0639060E-001	0.000000000000000E+000
-6.0659677E-001	0.000000000000000E+000
-6.0587513E-001	0.000000000000000E+000
-6.0640961E-001	0.000000000000000E+000
-6.0652804E-001	0.000000000000000E+000
-6.0621113E-001	0.000000000000000E+000
-6.0595530E-001	0.000000000000000E+000
-6.0598201E-001	0.000000000000000E+000
-6.0639054E-001	0.000000000000000E+000
-6.0599726E-001	0.000000000000000E+000
-6.0605073E-001	0.000000000000000E+000
-6.0618061E-001	0.000000000000000E+000
-6.0637909E-001	0.000000000000000E+000
-6.0645550E-001	0.000000000000000E+000
-6.0661584E-001	0.000000000000000E+000
-6.0638672E-001	0.000000000000000E+000
-6.0600877E-001	0.000000000000000E+000
-6.0622638E-001	0.000000000000000E+000
-6.0634094E-001	0.000000000000000E+000
-6.0669219E-001	0.000000000000000E+000
-6.0625309E-001	0.000000000000000E+000
-6.0636765E-001	0.000000000000000E+000
-6.0627222E-001	0.000000000000000E+000
-6.1102217E-001	0.000000000000000E+000
-6.1121690E-001	0.000000000000000E+000
-7.8924859E-001	-1.548099354557372E+000
-7.8871864E-001	-1.534461596798103E+000
-7.8775889E-001	-1.524574944128592E+000
-7.8669876E-001	-1.511853122876747E+000
-7.8576314E-001	-1.501692607617912E+000
-7.8469759E-001	-1.491063374198147E+000
-7.8366470E-001	-1.480424093151534E+000
-7.8278923E-001	-1.471457016924351E+000
-7.8175730E-001	-1.461861072591059E+000
-7.8074771E-001	-1.453787901749214E+000
-7.7972901E-001	-1.444732649152799E+000
-7.7876240E-001	-1.435901722422365E+000
-7.7774823E-001	-1.427278367595534E+000
-7.7680230E-001	-1.417835631132046E+000
-7.7586412E-001	-1.408777655826675E+000
-7.7482551E-001	-1.400444939456612E+000
-7.7378696E-001	-1.391418017238973E+000
-7.7279150E-001	-1.382553853232551E+000
-7.7177268E-001	-1.374114628467294E+000
-7.7074295E-001	-1.365396272551608E+000
-7.6966286E-001	-1.356399669277445E+000
-7.6879072E-001	-1.347392445085223E+000
-7.6773143E-001	-1.338723398350652E+000
-7.6675308E-001	-1.329685481334177E+000
-7.6580524E-001	-1.320711214923197E+000
-7.6483226E-001	-1.312118440460051E+000
-7.6375890E-001	-1.302853001212633E+000
-7.6288366E-001	-1.294285661920354E+000
-7.6180452E-001	-1.284893978489091E+000
-7.6076156E-001	-1.276186977271685E+000
-7.5978529E-001	-1.267072946385099E+000
-7.5880355E-001	-1.257426110268742E+000
-7.5777495E-001	-1.248946328405983E+000
-7.5674427E-001	-1.239986161390945E+000
-7.5578606E-001	-1.230771175299243E+000
-7.5478947E-001	-1.224499678998086E+000
-7.5384516E-001	-1.213757656628157E+000
-7.5276923E-001	-1.205748087140140E+000
-7.5177538E-001	-1.195157030252394E+000
-7.5081736E-001	-1.187479177150486E+000
-7.4983907E-001	-1.178265218795451E+000
-7.4882233E-001	-1.169127970795945E+000
-7.4772173E-001	-1.160216128455595E+000
-7.4681288E-001	-1.151728747205596E+000
-7.4586767E-001	-1.142860557056139E+000
-7.4492544E-001	-1.134231816101769E+000
-7.4367481E-001	-1.125994307713373E+000
-7.4283230E-001	-1.117483405741279E+000
-7.4183035E-001	-1.108685650132717E+000
-7.4073887E-001	-1.100119933348006E+000
-7.3979527E-001	-1.091414133017814E+000
-7.3879224E-001	-1.083067553042536E+000
-7.3780912E-001	-1.074853977395428E+000
-7.3686051E-001	-1.066128169082937E+000
-7.3586899E-001	-1.057599328269768E+000
-7.3479265E-001	-1.048791154805157E+000
-7.3383200E-001	-1.040616601981499E+000
-7.3290569E-001	-1.031579584610039E+000
-7.3188871E-001	-1.023674382793684E+000
-7.3090500E-001	-1.015083525329823E+000
-7.2986448E-001	-1.006814019353337E+000
-7.2881967E-001	-9.985351064414907E-001
-7.2775811E-001	-9.900251335843819E-001
-7.2681373E-001	-9.814366830185159E-001
-7.2586226E-001	-9.725426596899833E-001
-7.2484410E-001	-9.645408127042980E-001
-7.2386736E-001	-9.564306433913359E-001
-7.2288239E-001	-9.481677178431411E-001
-7.2185481E-001	-9.392334959573239E-001
-7.2087848E-001	-9.307426916689234E-001
-7.1988159E-001	-9.224146236148094E-001
-7.1890056E-001	-9.138989080157529E-001
-7.1780813E-001	-9.054342891875056E-001
-7.1676528E-001	-8.970247581601125E-001
-7.1585393E-001	-8.884033479348386E-001
-7.1487385E-001	-8.799892346449312E-001
-7.1375114E-001	-8.718448529640845E-001
-7.1286482E-001	-8.634290446837731E-001
-7.1180683E-001	-8.548769180933711E-001
-7.1081334E-001	-8.465442323574308E-001
-7.0978343E-001	-8.383288711861301E-001
-7.0883930E-001	-8.297795103489825E-001
-7.0795161E-001	-8.216648304628027E-001
-7.0689940E-001	-8.134263168882431E-001
-7.0582998E-001	-8.047588470202448E-001
-7.0483691E-001	-7.964882367738957E-001
-7.0392156E-001	-7.878878300112682E-001
-7.0281911E-001	-7.799133208579825E-001
-7.0173621E-001	-7.716021270111764E-001
-7.0087516E-001	-7.620615312070753E-001
-6.9983011E-001	-7.543398224996718E-001
-6.9898367E-001	-7.460311855430994E-001
-6.9778836E-001	-7.378976653433540E-001
-6.9681382E-001	-7.294426340003923E-001
-6.9594282E-001	-7.210492766979648E-001
-6.9490105E-001	-7.125337540551460E-001
-6.9379246E-001	-7.042362997173388E-001
-6.9290370E-001	-6.960280057456769E-001
-6.9183177E-001	-6.874871418156037E-001
-6.9086915E-001	-6.788668230013997E-001
-6.8980002E-001	-6.706468983794798E-001
-6.8883520E-001	-6.622805726122794E-001
-6.8778521E-001	-6.541627184660355E-001
-6.8691957E-001	-6.457110577159457E-001
-6.8582571E-001	-6.372689042898227E-001
-6.8485600E-001	-6.294017845281861E-001
-6.8397415E-001	-6.209167184101205E-001
-6.8285739E-001	-6.127642503057595E-001
-6.8192327E-001	-6.046533383153090E-001
-6.8080372E-001	-5.963323798582509E-001
-6.7992461E-001	-5.876112612764142E-001
-6.7890191E-001	-5.794333745897897E-001
-6.7782861E-001	-5.710880054091945E-001
-6.7696184E-001	-5.627041965172763E-001
-6.7587870E-001	-5.551414897458411E-001
-6.7491543E-001	-5.465596943265849E-001
-6.7382318E-001	-5.382673700189273E-001
-6.7278677E-001	-5.302026780253168E-001
-6.7188412E-001	-5.221353248451592E-001
-6.7080450E-001	-5.140038903346102E-001
-6.6978729E-001	-5.057798709582375E-001
-6.6886073E-001	-4.974206226567421E-001
-6.6780639E-001	-4.889686313570785E-001
-6.6675150E-001	-4.808180141090252E-001
-6.6592830E-001	-4.729684049746505E-001
-6.6484839E-001	-4.644791309332996E-001
-6.6382885E-001	-4.564402376612018E-001
-6.6280013E-001	-4.482834734436549E-001
-6.6169643E-001	-4.395012516235908E-001
-6.6052389E-001	-4.303651845289593E-001
-6.5942252E-001	-4.226156965725938E-001
-6.5862197E-001	-4.143414813394483E-001
-6.5784305E-001	-4.063119030109164E-001
-6.5678602E-001	-3.982200416977761E-001
-6.5546423E-001	-3.898733037785362E-001
-6.5445536E-001	-3.816634440380668E-001
-6.5361422E-001	-3.736187471766712E-001
-6.5256882E-001	-3.654921251426977E-001
-6.5159547E-001	-3.573047218982264E-001
-6.5064663E-001	-3.490798307099841E-001
-6.4972746E-001	-3.411556584985513E-001
-6.4858645E-001	-3.330268795015634E-001
-6.4746791E-001	-3.247632019704678E-001
-6.4669979E-001	-3.167316595410345E-001
-6.4560312E-001	-3.088046972191445E-001
-6.4453381E-001	-3.004272366414238E-001
-6.4335477E-001	-2.922599339443774E-001
-6.4257520E-001	-2.844356390199181E-001
-6.4163357E-001	-2.763944465681671E-001
-6.4074767E-001	-2.683596958371788E-001
-6.3967949E-001	-2.603600675723063E-001
-6.3850909E-001	-2.521618367594085E-001
-6.3764489E-001	-2.441045468397161E-001
-6.3664901E-001	-2.359174958395736E-001
-6.3555670E-001	-2.276229857110021E-001
-6.3480449E-001	-2.200539615695125E-001
-6.3365459E-001	-2.119657335526961E-001
-6.3269418E-001	-2.041030741800505E-001
-6.3161159E-001	-1.960576150773299E-001
-6.3072890E-001	-1.881919790542234E-001
-6.2964112E-001	-1.802438616961004E-001
-6.2867594E-001	-1.721011954532177E-001
-6.2769377E-001	-1.643822638628373E-001
-6.2661642E-001	-1.560608854456977E-001
-6.2558168E-001	-1.479988425659640E-001
-6.2463003E-001	-1.399005909484847E-001
-6.2351078E-001	-1.322246343321881E-001
-6.2248927E-001	-1.240481922609935E-001
-6.2159532E-001	-1.161066886313530E-001
-6.2057441E-001	-1.080820387866652E-001
-6.1969382E-001	-1.000720462158182E-001
-6.1878997E-001	-9.233643656113655E-002
-6.1766779E-001	-8.432662310427141E-002
-6.1667317E-001	-7.645325116916690E-002
-6.1558473E-001	-6.820140854041584E-002
-6.1466163E-001	-6.048018883596804E-002
-6.1361277E-001	-5.227520486719350E-002
-6.1260182E-001	-4.439828699644366E-002
-6.1161077E-001	-3.496557371100029E-002
-6.1014432E-001	-2.588918404783014E-002
-6.0929328E-001	-1.824837584798736E-002
-6.0821676E-001	-1.054257223070321E-002
-6.0741758E-001	-2.458420142071800E-003
-6.0639256E-001	5.542572882539537E-003
-6.0511142E-001	1.343732737248360E-002
-6.0421342E-001	2.144426820342665E-002
-6.0323465E-001	2.946032153408007E-002
-6.0227078E-001	3.726269291948531E-002
-6.0126036E-001	4.495706600654437E-002
-6.0044086E-001	5.260277923984263E-002
-5.9916419E-001	6.102134435679085E-002
-5.9816122E-001	6.909817675370000E-002
-5.9729058E-001	7.688374177833723E-002
-5.9623575E-001	8.481443126651422E-002
-5.9522939E-001	9.277417603017846E-002
-5.9419852E-001	1.006202088610143E-001
-5.9286141E-001	1.094492894416261E-001
-5.9196967E-001	1.183032673542149E-001
-5.9103858E-001	1.258865729722444E-001
-5.8986217E-001	1.337056354343620E-001
-5.8889103E-001	1.416365070165032E-001
-5.8793241E-001	1.494853674172256E-001
-5.8684444E-001	1.573551134551291E-001
-5.8584386E-001	1.647343921509605E-001
-5.8497965E-001	1.731391400203121E-001
-5.8414316E-001	1.809298541672804E-001
-5.8304185E-001	1.886461896442420E-001
-5.8182269E-001	1.965719391618439E-001
-5.8105671E-001	2.043963622439797E-001
-5.7999480E-001	2.122516546881310E-001
-5.7908493E-001	2.199680825486117E-001
-5.7791346E-001	2.276551375441542E-001
-5.7683712E-001	2.358002297718222E-001
-5.7605624E-001	2.436184334265930E-001
-5.7494086E-001	2.513271337719978E-001
-5.7396728E-001	2.590801467498145E-001
-5.7303262E-001	2.666490382345135E-001
-5.7176065E-001	2.744580192698375E-001
-5.7101065E-001	2.825938690867678E-001
-5.6986916E-001	2.901203597658830E-001
-5.6900066E-001	2.975460592381377E-001
-5.6798548E-001	3.051716118223136E-001
-5.6696057E-001	3.130638549514786E-001
-5.6608266E-001	3.208665228276342E-001
-5.6488645E-001	3.283474169395588E-001
-5.6392741E-001	3.358050365653771E-001
-5.6298345E-001	3.434409468124306E-001
-5.6194448E-001	3.510210047717450E-001
-5.6086099E-001	3.587110243368761E-001
-5.5993307E-001	3.661311112551218E-001
-5.5908924E-001	3.740135728278100E-001
-5.5789220E-001	3.815289713223367E-001
-5.5711430E-001	3.892292898079308E-001
-5.5581504E-001	3.968476315753331E-001
-5.5487770E-001	4.044991399127018E-001
-5.5385160E-001	4.122946483117547E-001
-5.5277574E-001	4.200239385029789E-001
-5.5197072E-001	4.276283536730201E-001
-5.5113024E-001	4.352251102940876E-001
-5.5004215E-001	4.429174771898623E-001
-5.4899240E-001	4.502049585873333E-001
-5.4777503E-001	4.579759436073143E-001
-5.4691589E-001	4.653471999073849E-001
-5.4592973E-001	4.727992151898370E-001
-5.4497939E-001	4.807642671383094E-001
-5.4388934E-001	4.884666086459752E-001
-5.4287809E-001	4.960768513243502E-001
-5.4189080E-001	5.034954987328355E-001
-5.4108834E-001	5.112235086272410E-001
-5.3999120E-001	5.186996991849613E-001
-5.3890407E-001	5.264054103582012E-001
-5.3796428E-001	5.341654307426049E-001
-5.3704363E-001	5.417754781191020E-001
-5.3594911E-001	5.494713647360054E-001
-5.3494656E-001	5.569124990624896E-001
-5.3388834E-001	5.642745319615905E-001
-5.3299648E-001	5.719028589212218E-001
-5.3201967E-001	5.799150495078980E-001
-5.3100824E-001	5.876992935383756E-001
-5.2998513E-001	5.943512837230074E-001
-5.2899879E-001	6.020356283689168E-001
-5.2793193E-001	6.095130878880060E-001
-5.2687538E-001	6.166696485683856E-001
-5.2603889E-001	6.241495728541793E-001
-5.2491152E-001	6.316369616736939E-001
-5.2399260E-001	6.390645543320312E-001
-5.2281559E-001	6.464288937679630E-001
-5.2189255E-001	6.539292983986713E-001
-5.2096736E-001	6.613176447787761E-001
-5.2007717E-001	6.683668606942845E-001
-5.1891315E-001	6.756458389400350E-001
-5.1781029E-001	6.832029954702747E-001
-5.1676470E-001	6.905333505034568E-001
-5.1604158E-001	6.973734954716972E-001
-5.1499814E-001	7.049655604555625E-001
-5.1390260E-001	7.127733572594579E-001
-5.1300210E-001	7.203632518649106E-001
-5.1187140E-001	7.275353276895160E-001
-5.1099443E-001	7.350574717595874E-001
-5.0992554E-001	7.420507378324324E-001
-5.0898856E-001	7.496966395389162E-001
-5.0780678E-001	7.568573627413784E-001
-5.0703704E-001	7.638378289562704E-001
-5.0607926E-001	7.711976527891782E-001
-5.0490856E-001	7.788609329975733E-001
-5.0383449E-001	7.862623133869064E-001
-5.0293827E-001	7.935562906441902E-001
-5.0202912E-001	8.009992979294003E-001
-5.0082576E-001	8.081178310568653E-001
-4.9987796E-001	8.156670278145217E-001
-4.9896196E-001	8.229905788209759E-001
-4.9801138E-001	8.301731995134443E-001
-4.9690488E-001	8.377039698814954E-001
-4.9594745E-001	8.447982556208888E-001
-4.9485689E-001	8.520782835505578E-001
-4.9379009E-001	8.590946931529926E-001
-4.9298951E-001	8.660165606165551E-001
-4.9187198E-001	8.735579783441851E-001
-4.9066451E-001	8.809832534580320E-001
-4.8983005E-001	8.873955978143595E-001
-4.8889011E-001	8.943183230305181E-001
-4.8780903E-001	9.012204156233476E-001
-4.8695385E-001	9.084126085594839E-001
-4.8602873E-001	9.152459495321474E-001
-4.8489678E-001	9.221727053789728E-001
-4.8387548E-001	9.287309922553888E-001
-4.8294929E-001	9.360206777022957E-001
-4.8205471E-001	9.428196195451051E-001
-4.8093030E-001	9.496028634409157E-001
-4.7981825E-001	9.568970053008332E-001
-4.7881031E-001	9.636485768122363E-001
-4.7789261E-001	9.704317036602248E-001
-4.7687548E-001	9.771278398456369E-001
-4.7595969E-001	9.840528546346388E-001
-4.7492558E-001	9.905240835139040E-001
-4.7385365E-001	9.976896151072454E-001
-4.7301593E-001	1.004329182112354E+000
-4.7173840E-001	1.011250007483692E+000
-4.7070080E-001	1.017786520636742E+000
-4.6989653E-001	1.024283806536584E+000
-4.6911579E-001	1.031641510901631E+000
-4.6804205E-001	1.038180589675901E+000
-4.6688494E-001	1.045496314969164E+000
-4.6598187E-001	1.052919185685894E+000
-4.6491081E-001	1.058442973152358E+000
-4.6371701E-001	1.065114109639744E+000
-4.6306527E-001	1.071294317090953E+000
-4.6190834E-001	1.078483555879858E+000
-4.6094766E-001	1.084117540688455E+000
-4.5987317E-001	1.091151675968256E+000
-4.5873615E-001	1.098918625899074E+000
-4.5774025E-001	1.106653532774743E+000
-4.5672292E-001	1.113730544431347E+000
-4.5574969E-001	1.120561521362379E+000
-4.5478362E-001	1.127303084315823E+000
-4.5367420E-001	1.133933505802236E+000
-4.5278519E-001	1.140476452669609E+000
-4.5179117E-001	1.147635230443612E+000
-4.5061961E-001	1.153718320031960E+000
-4.4968769E-001	1.160875759328952E+000
-4.4869474E-001	1.167926881876255E+000
-4.4767186E-001	1.174401537411747E+000
-4.4676504E-001	1.180999140220660E+000
-4.4566023E-001	1.187662499592353E+000
-4.4469509E-001	1.194143857117048E+000
-4.4372821E-001	1.201318125068033E+000
-4.4282410E-001	1.207602293127113E+000
-4.4183478E-001	1.213311996448915E+000
-4.4081002E-001	1.220552783992707E+000
-4.3976864E-001	1.227820496592257E+000
-4.3874064E-001	1.233954990627588E+000
-4.3767563E-001	1.240926284662496E+000
-4.3676975E-001	1.247726914783316E+000
-4.3562829E-001	1.254660136997702E+000
-4.3484482E-001	1.260722794773329E+000
-4.3370584E-001	1.267503465629282E+000
-4.3272173E-001	1.274465695023538E+000
-4.3178576E-001	1.281026356879849E+000
-4.3065590E-001	1.287474838947809E+000
-4.2972693E-001	1.294240214482501E+000
-4.2879999E-001	1.300699099630673E+000
-4.2769241E-001	1.307838459947593E+000
-4.2675185E-001	1.314932208646223E+000
-4.2581081E-001	1.320882701989408E+000
-4.2470226E-001	1.327456213119961E+000
-4.2375913E-001	1.333655150538249E+000
-4.2273867E-001	1.340110786269035E+000
-4.2174226E-001	1.346757552414028E+000
-4.2082095E-001	1.352790736075908E+000
-4.1977242E-001	1.358912099485279E+000
-4.1881534E-001	1.364979247942014E+000
-4.1774151E-001	1.371637451703904E+000
-4.1661048E-001	1.378045584050170E+000
-4.1564846E-001	1.384779112206568E+000
-4.1473609E-001	1.391570582158036E+000
-4.1374108E-001	1.398579141541431E+000
-4.1270414E-001	1.404307185361784E+000
-4.1167152E-001	1.411035075231839E+000
-4.1067064E-001	1.417204293379388E+000
-4.0972373E-001	1.423832216058607E+000
-4.0871549E-001	1.429736118349764E+000
-4.0773162E-001	1.436345030197920E+000
-4.0670753E-001	1.442578029715357E+000
-4.0574512E-001	1.448927490799516E+000
-4.0479219E-001	1.454977437159044E+000
-4.0366346E-001	1.461113284445474E+000
-4.0268981E-001	1.467446639995877E+000
-4.0172142E-001	1.473279587423539E+000
-4.0075779E-001	1.480057640070150E+000
-3.9982119E-001	1.485974126253971E+000
-3.9883876E-001	1.492096906732593E+000
-3.9770991E-001	1.498469187843590E+000
-3.9674389E-001	1.504774494855486E+000
-3.9579329E-001	1.511032041134953E+000
-3.9474735E-001	1.516996517777445E+000
-3.9377457E-001	1.523363067871994E+000
-3.9276513E-001	1.529612829267649E+000
-3.9179835E-001	1.535286850675380E+000
-3.9078629E-001	1.540890893312522E+000
-3.8981804E-001	1.546317153807337E+000
-3.8869002E-001	1.552383788619885E+000
-3.8783410E-001	1.559166811268637E+000
-3.8675168E-001	1.566850596809616E+000
-3.8575673E-001	1.571500612629780E+000
-3.8476059E-001	1.577153980456018E+000
-3.8374811E-001	1.583170965472149E+000
-3.8271946E-001	1.589581583109162E+000
-3.8176364E-001	1.595400362654965E+000
-3.8072592E-001	1.601139165380740E+000
-3.7976056E-001	1.606424276751500E+000
-3.7876096E-001	1.612960418341352E+000
-3.7770882E-001	1.618986487952500E+000
-3.7660429E-001	1.624588014351003E+000
-3.7579861E-001	1.630895024096529E+000
-3.7480181E-001	1.636910162626158E+000
-3.7381396E-001	1.642981217691197E+000
-3.7277028E-001	1.648503207274867E+000
-3.7177226E-001	1.654284893914504E+000
-3.7079623E-001	1.660007281159913E+000
-3.6978158E-001	1.666073011361320E+000
-3.6870742E-001	1.671381087766751E+000
-3.6770025E-001	1.677051147652993E+000
-3.6682385E-001	1.683093865619661E+000
-3.6585897E-001	1.689538615169347E+000
-3.6469463E-001	1.695466474802405E+000
-3.6380291E-001	1.700905436415624E+000
-3.6275935E-001	1.706781164915478E+000
-3.6169302E-001	1.712015651994284E+000
-3.6078778E-001	1.718220876068017E+000
-3.5983032E-001	1.724833527924837E+000
-3.5878894E-001	1.730404624232548E+000
-3.5770094E-001	1.736623399769360E+000
-3.5679415E-001	1.742714044672468E+000
-3.5572183E-001	1.748279519103193E+000
-3.5480043E-001	1.753529705546342E+000
-3.5368347E-001	1.759177126542291E+000
-3.5273296E-001	1.765285930147872E+000
-3.5171089E-001	1.770326090796289E+000
-3.5078305E-001	1.776212481988802E+000
-3.4976062E-001	1.781452084581058E+000
-3.4889913E-001	1.786917365612467E+000
-3.4781525E-001	1.792914120963321E+000
-3.4675413E-001	1.797857423347459E+000
-3.4581417E-001	1.803788594883045E+000
-3.4478623E-001	1.809956570742312E+000
-3.4376547E-001	1.815241901134996E+000
-3.4273192E-001	1.820778520115947E+000
-3.4178379E-001	1.825581239605388E+000
-3.4068286E-001	1.831886657686147E+000
-3.3973086E-001	1.837349716294867E+000
-3.3877730E-001	1.843076019099469E+000
-3.3786705E-001	1.848374083914145E+000
-3.3674419E-001	1.853470390318464E+000
-3.3576697E-001	1.859682011383551E+000
-3.3481792E-001	1.864676793416344E+000
-3.3368540E-001	1.869919172681652E+000
-3.3278406E-001	1.874607856350924E+000
-3.3171684E-001	1.882237463085737E+000
-3.3062458E-001	1.886192129952256E+000
-3.2973221E-001	1.891169963059603E+000
-3.2877550E-001	1.896627625657452E+000
-3.2777876E-001	1.901806542257567E+000
-3.2680526E-001	1.907217496523156E+000
-3.2568797E-001	1.912120335631901E+000
-3.2472500E-001	1.917336155678939E+000
-3.2374340E-001	1.921886141653413E+000
-3.2274553E-001	1.927033143738910E+000
-3.2173491E-001	1.932113956615904E+000
-3.2073033E-001	1.938338269514068E+000
-3.1973696E-001	1.943084193324601E+000
-3.1872407E-001	1.948043687005340E+000
-3.1773916E-001	1.953359062197038E+000
-3.1676421E-001	1.958306336844416E+000
-3.1579411E-001	1.964064094396500E+000
-3.1486270E-001	1.969329726916766E+000
-3.1375220E-001	1.974725221594166E+000
-3.1273803E-001	1.979445415346525E+000
-3.1180039E-001	1.984578058951421E+000
-3.1091434E-001	1.989447890884350E+000
-3.0984947E-001	1.994375453695006E+000
-3.0873728E-001	1.999696115376763E+000
-3.0789813E-001	2.004376644687984E+000
-3.0678996E-001	2.008989307615488E+000
-3.0580020E-001	2.014785801370948E+000
-3.0483302E-001	2.019083508420796E+000
-3.0371433E-001	2.024713580255153E+000
-3.0268404E-001	2.029417197737423E+000
-3.0183959E-001	2.035121395725593E+000
-3.0071273E-001	2.039653758483901E+000
-2.9984429E-001	2.044361196182386E+000
-2.9879954E-001	2.049932929100923E+000
-2.9770455E-001	2.054887768571018E+000
-2.9675889E-001	2.059868415472700E+000
-2.9581454E-001	2.064599107540772E+000
-2.9477319E-001	2.069035465518631E+000
-2.9372868E-001	2.074889462855129E+000
-2.9269928E-001	2.079826774092155E+000
-2.9176375E-001	2.086353335667535E+000
-2.9078960E-001	2.089870631418840E+000
-2.8980142E-001	2.094727598692721E+000
-2.8874153E-001	2.099172326701662E+000
-2.8780943E-001	2.104192316532135E+000
-2.8681597E-001	2.108451564663252E+000
-2.8580400E-001	2.113247680443315E+000
-2.8476140E-001	2.117509315135305E+000
-2.8379872E-001	2.123030107451164E+000
-2.8282720E-001	2.127632911006618E+000
-2.8177255E-001	2.132309606505764E+000
-2.8061578E-001	2.137044178082126E+000
-2.7986169E-001	2.141880782390082E+000
-2.7872425E-001	2.146359863104653E+000
-2.7778208E-001	2.151530289058075E+000
-2.7679262E-001	2.156885940443594E+000
-2.7581006E-001	2.161128006599565E+000
-2.7475968E-001	2.166355451620483E+000
-2.7377680E-001	2.171415118983496E+000
-2.7281287E-001	2.175168248238402E+000
-2.7189896E-001	2.180283533358446E+000
-2.7076331E-001	2.184865405162164E+000
-2.6979241E-001	2.189382278532886E+000
-2.6886562E-001	2.194768668418231E+000
-2.6778972E-001	2.198710012491102E+000
-2.6681307E-001	2.203692964381641E+000
-2.6573983E-001	2.208484591227624E+000
-2.6476881E-001	2.213265875147451E+000
-2.6373768E-001	2.217082732529557E+000
-2.6269358E-001	2.222577982989627E+000
-2.6178649E-001	2.227074569022211E+000
-2.6080900E-001	2.231777140663731E+000
-2.5978979E-001	2.236082302474919E+000
-2.5882459E-001	2.241074578077704E+000
-2.5777987E-001	2.245597825834042E+000
-2.5680533E-001	2.250778507795886E+000
-2.5573409E-001	2.254139964503274E+000
-2.5474221E-001	2.259135427850268E+000
-2.5373682E-001	2.264767850019823E+000
-2.5285256E-001	2.268943799314679E+000
-2.5171426E-001	2.276837298991492E+000
-2.5079775E-001	2.278926311505991E+000
-2.4978243E-001	2.282750571767490E+000
-2.4873535E-001	2.286583400986817E+000
-2.4773899E-001	2.290805310994722E+000
-2.4682878E-001	2.296292609362695E+000
-2.4575219E-001	2.300379240126528E+000
-2.4478301E-001	2.303724462187418E+000
-2.4376288E-001	2.308355643793405E+000
-2.4282549E-001	2.312933267290290E+000
-2.4176274E-001	2.317411838030360E+000
-2.4081896E-001	2.322159590820469E+000
-2.3985840E-001	2.326242697710382E+000
-2.3879570E-001	2.330394479687566E+000
-2.3784091E-001	2.335604347564555E+000
-2.3677817E-001	2.339570051511309E+000
-2.3579752E-001	2.344199365487796E+000
-2.3472624E-001	2.347818652512853E+000
-2.3369583E-001	2.351586055841814E+000
-2.3279820E-001	2.356372324404891E+000
-2.3174652E-001	2.360590723377696E+000
-2.3081748E-001	2.365078624222114E+000
-2.2970945E-001	2.369478869217403E+000
-2.2878669E-001	2.373338196564601E+000
-2.2789609E-001	2.377176450383345E+000
-2.2669958E-001	2.380552226194631E+000
-2.2585297E-001	2.385142602302412E+000
-2.2492474E-001	2.388863117812466E+000
-2.2387549E-001	2.393079074996482E+000
-2.2279407E-001	2.396886092369202E+000
-2.2178867E-001	2.401195254854187E+000
-2.2081093E-001	2.405581548258105E+000
-2.1983534E-001	2.408867316941429E+000
-2.1877851E-001	2.412987939655320E+000
-2.1775864E-001	2.416983573525041E+000
-2.1672724E-001	2.420541211962700E+000
-2.1572846E-001	2.425158548964891E+000
-2.1482298E-001	2.429299418848970E+000
-2.1376234E-001	2.433606573001097E+000
-2.1288159E-001	2.437703670466043E+000
-2.1166545E-001	2.444129956265289E+000
-2.1086554E-001	2.446916590134297E+000
-2.0970646E-001	2.449589486869534E+000
-2.0869906E-001	2.454163509110607E+000
-2.0775108E-001	2.458797489603363E+000
-2.0682715E-001	2.463200780603502E+000
-2.0579271E-001	2.466658791734105E+000
-2.0474565E-001	2.471669694063841E+000
-2.0382945E-001	2.475279976214338E+000
-2.0280552E-001	2.479665712074006E+000
-2.0178819E-001	2.483360309015824E+000
-2.0091379E-001	2.487025465866886E+000
-1.9980033E-001	2.491122949730467E+000
-1.9876027E-001	2.495170570909979E+000
-1.9777775E-001	2.499164843291556E+000
-1.9683076E-001	2.502654711129487E+000
-1.9576164E-001	2.506808114272587E+000
-1.9479227E-001	2.510447707435674E+000
-1.9383360E-001	2.513755743702262E+000
-1.9273795E-001	2.517554775156361E+000
-1.9183937E-001	2.520905007938877E+000
-1.9085088E-001	2.524237570663296E+000
-1.8972172E-001	2.528797793443545E+000
-1.8875720E-001	2.531670151200757E+000
-1.8783063E-001	2.535317503191813E+000
-1.8673411E-001	2.538937278367850E+000
-1.8584205E-001	2.544026894682776E+000
-1.8475370E-001	2.547630510396427E+000
-1.8389842E-001	2.550489871866173E+000
-1.8283609E-001	2.554650854109369E+000
-1.8182828E-001	2.559378872315089E+000
-1.8080750E-001	2.562767496263542E+000
-1.7978440E-001	2.566331192071214E+000
-1.7883556E-001	2.570542080810776E+000
-1.7779946E-001	2.574595134554414E+000
-1.7683733E-001	2.578251157093938E+000
-1.7582440E-001	2.582105580027456E+000
-1.7479391E-001	2.586172542707832E+000
-1.7385989E-001	2.589598334497872E+000
-1.7275387E-001	2.593969297629819E+000
-1.7180330E-001	2.599496123606508E+000
-1.7079210E-001	2.602050038951413E+000
-1.6977115E-001	2.606146303040010E+000
-1.6891010E-001	2.609660200347324E+000
-1.6782592E-001	2.612993504162191E+000
-1.6678077E-001	2.617128574461844E+000
-1.6570505E-001	2.621163186668635E+000
-1.6481902E-001	2.625112720109801E+000
-1.6377832E-001	2.628463666196218E+000
-1.6279015E-001	2.632233148005504E+000
-1.6178305E-001	2.636589098307830E+000
-1.6079476E-001	2.640873496179225E+000
-1.5971620E-001	2.644589502937116E+000
-1.5873881E-001	2.647848068012124E+000
-1.5776622E-001	2.651478540566226E+000
-1.5687674E-001	2.655260501364801E+000
-1.5583606E-001	2.658582719387827E+000
-1.5482041E-001	2.662926017962118E+000
-1.5385720E-001	2.667247745964087E+000
-1.5280774E-001	2.670988530472476E+000
-1.5180202E-001	2.674712622331242E+000
-1.5079409E-001	2.678048660044674E+000
-1.4981420E-001	2.682381654779123E+000
-1.4890927E-001	2.686725928551631E+000
-1.4783117E-001	2.690506138410846E+000
-1.4686310E-001	2.694764181971554E+000
-1.4579545E-001	2.696799714532158E+000
-1.4486274E-001	2.699484307317359E+000
-1.4384134E-001	2.703782013444986E+000
-1.4287828E-001	2.706588974981393E+000
-1.4177503E-001	2.710832156203661E+000
-1.4084692E-001	2.713210759891403E+000
-1.3973752E-001	2.717980803990805E+000
-1.3889378E-001	2.720318088879316E+000
-1.3787800E-001	2.723598231044080E+000
-1.3688058E-001	2.726977337565686E+000
-1.3582812E-001	2.730131644079217E+000
-1.3485540E-001	2.735146496306969E+000
-1.3381746E-001	2.738732342642765E+000
-1.3279280E-001	2.740819650340026E+000
-1.3181710E-001	2.743193876688136E+000
-1.3086443E-001	2.748425685421186E+000
-1.2986581E-001	2.751915891473200E+000
-1.2877879E-001	2.756277769528058E+000
-1.2776971E-001	2.759488356334180E+000
-1.2687343E-001	2.762774876358705E+000
-1.2579076E-001	2.766743977036739E+000
-1.2493951E-001	2.769432816516471E+000
-1.2377205E-001	2.771284027662212E+000
-1.2274207E-001	2.774247666200003E+000
-1.2182229E-001	2.778612737026471E+000
-1.2087508E-001	2.780796335251779E+000
-1.1981281E-001	2.783080339707712E+000
-1.1886183E-001	2.788081495298293E+000
-1.1787671E-001	2.791366262352412E+000
-1.1678404E-001	2.795298561729759E+000
-1.1581590E-001	2.797487513334664E+000
-1.1477055E-001	2.799719427062890E+000
-1.1379963E-001	2.803186991424489E+000
-1.1282406E-001	2.806766882706654E+000
-1.1177997E-001	2.810001577492102E+000
-1.1085402E-001	2.813728926082447E+000
-1.0977654E-001	2.817344068395798E+000
-1.0884963E-001	2.819811062128448E+000
-1.0779197E-001	2.824775494359152E+000
-1.0680763E-001	2.829444288493193E+000
-1.0580242E-001	2.830536265616075E+000
-1.0487203E-001	2.832101025239183E+000
-1.0377392E-001	2.835526094397579E+000
-1.0278279E-001	2.838674266305233E+000
-1.0180086E-001	2.841957904398427E+000
-1.0083695E-001	2.845379199457142E+000
-9.9852040E-002	2.848152672251068E+000
-9.8895349E-002	2.851572163678981E+000
-9.7886436E-002	2.854554610705119E+000
-9.6841298E-002	2.857127195983025E+000
-9.5732093E-002	2.860408223613561E+000
-9.4826981E-002	2.864454533410477E+000
-9.3812771E-002	2.868215887358886E+000
-9.2837192E-002	2.871296325767474E+000
-9.1797233E-002	2.874443383460473E+000
-9.0816468E-002	2.877972644512301E+000
-8.9855097E-002	2.881393090718333E+000
-8.8880844E-002	2.885148685493462E+000
-8.7885723E-002	2.888659731381477E+000
-8.6773537E-002	2.891979240708894E+000
-8.5830815E-002	2.894847087407925E+000
-8.4835745E-002	2.897593825779580E+000
-8.3862506E-002	2.900491399897462E+000
-8.2897149E-002	2.902649118135663E+000
-8.1765205E-002	2.906905356104726E+000
-8.0850080E-002	2.909316621996737E+000
-7.9830080E-002	2.914315760258305E+000
-7.8867547E-002	2.917002391484051E+000
-7.7921450E-002	2.920705071202031E+000
-7.6744586E-002	2.923766506678845E+000
-7.5925127E-002	2.925748424673515E+000
-7.4843280E-002	2.927418843187660E+000
-7.3780186E-002	2.932352043560604E+000
-7.2795399E-002	2.934076985827186E+000
-7.1809225E-002	2.937528769451163E+000
-7.0856102E-002	2.941290946340828E+000
-6.9823913E-002	2.944329352566484E+000
-6.8821616E-002	2.946820385202216E+000
-6.7877643E-002	2.952800606230923E+000
-6.6693552E-002	2.957112369713965E+000
-6.5884709E-002	2.958186169465383E+000
-6.4767614E-002	2.960622830600503E+000
-6.3789956E-002	2.964767449983842E+000
-6.2828369E-002	2.967437709647193E+000
-6.1893228E-002	2.970461221355244E+000
-6.0763530E-002	2.973276406250630E+000
-5.9921175E-002	2.976599108841683E+000
-5.8832448E-002	2.979534987541918E+000
-5.7923991E-002	2.983915202319629E+000
-5.6856144E-002	2.986295565686831E+000
-5.5817671E-002	2.989898473221572E+000
-5.4885902E-002	2.993511018377770E+000
-5.3861752E-002	2.996251658708971E+000
-5.2884765E-002	2.999662990450261E+000
-5.1920146E-002	3.003068303068488E+000
-5.0931636E-002	3.007602583754945E+000
-4.9886059E-002	3.010485081748968E+000
-4.8755631E-002	3.013983161637071E+000
-4.7865335E-002	3.016432056824369E+000
-4.6866845E-002	3.020852845360125E+000
-4.5825303E-002	3.024142900550800E+000
-4.4852253E-002	3.026395812303113E+000
-4.3805212E-002	3.030339119610971E+000
-4.2859334E-002	3.032865397356147E+000
-4.1818939E-002	3.035497089985064E+000
-4.0821850E-002	3.038488465326779E+000
-3.9847128E-002	3.042470562789163E+000
-3.8831044E-002	3.045279590560440E+000
-3.7821312E-002	3.047215927530213E+000
-3.6877979E-002	3.050865393545889E+000
-3.5797983E-002	3.053483220861178E+000
-3.4879953E-002	3.057272033282985E+000
-3.3801921E-002	3.060360343092029E+000
-3.2800868E-002	3.065635438907107E+000
-3.1822558E-002	3.067385563695879E+000
-3.0843381E-002	3.071728050708778E+000
-2.9921031E-002	3.074145360411297E+000
-2.8883746E-002	3.076678357742438E+000
-2.7814411E-002	3.080333805194599E+000
-2.6849411E-002	3.085192805132110E+000
-2.5887024E-002	3.087121677895382E+000
-2.4806656E-002	3.090207828691709E+000
-2.3827389E-002	3.092340713644929E+000
-2.2800142E-002	3.096319090161053E+000
-2.1838570E-002	3.099361446168693E+000
-2.0845344E-002	3.102614459006396E+000
-1.9844783E-002	3.105357506208954E+000
-1.8915029E-002	3.108910829656651E+000
-1.7831648E-002	3.111986578948954E+000
-1.6782090E-002	3.114907846130720E+000
-1.5798453E-002	3.116681468155633E+000
-1.4801035E-002	3.120437143518945E+000
-1.3876366E-002	3.124223344028003E+000
-1.2889126E-002	3.127713080357623E+000
-1.1742706E-002	3.129783116015286E+000
-1.0896189E-002	3.133887483014007E+000
-9.7260932E-003	3.137804121330937E+000
-8.8641904E-003	3.141554439561020E+000
-7.8984043E-003	3.145363502480372E+000
-6.8188878E-003	3.148386279190031E+000
-5.9311669E-003	3.152382569351193E+000
-4.8861946E-003	3.156154310261755E+000
-3.8461336E-003	3.160188176013804E+000
-2.9190988E-003	3.162542972384102E+000
-1.8703789E-003	3.166197644891554E+000
-8.1440841E-004	3.169162792740053E+000
1.4857249E-004	3.174093821237093E+000
1.1384361E-003	3.175478090290689E+000
2.2221946E-003	3.179441193739590E+000
3.1017617E-003	3.182370728669213E+000
4.0836120E-003	3.186356891636500E+000
5.1117931E-003	3.189009835874593E+000
6.1267884E-003	3.191009334720839E+000
6.7203571E-003	3.191584487756089E+000
6.8730884E-003	3.190622895956039E+000