EC-Lab ASCII FILE
Nb header lines : 63                          

Linear Sweep Voltammetry

Run on channel : 6 (SN 13765)
User : 
Electrode connection : standard
Potential control : Ewe
Ewe ctrl range : min = -2.50 V, max = 2.50 V
Ewe,I filtering : <None>
Safety Limits :
	Do not start on E overload
Channel : Floating
Acquisition started on : 07/13/2026 15:29:47.018
Technique started on : 07/13/2026 15:29:48.015
Loaded Setting File :  C:\Users\EEM-620\Desktop\Wade\20260630\LSV 1mg MoS2 1_C06.mpr
Saved on :
	File : N719_0713-d-3_C06.mpr
	Directory : C:\Users\EEM-620\Desktop\Wade\abao\20260713\
	Host : 192.109.209.200
Device : VSP-300 (SN 0025)
Address : 192.109.209.129
EC-LAB for windows v11.62 (software)
Internet server v27.00 (firmware)
Command interpretor v12.02 (firmware)
Electrode material : Au/Pd
Initial state : 
Electrolyte : NaCl (0.2M)
Comments : Fe(CN)63-/Fe(CN)64- 5.10-3 M
Cable : ULC
Reference electrode : SCE Saturated Calomel Electrode (0.241 V)
Electrode surface area : 0.001 cm2
Characteristic mass : 0.001 g
Equivalent Weight : 0.000 g/eq.
Density : 0.000 g/cm3
Volume (V) : 0.001 cm3
Cycle Definition : Charge/Discharge alternance
tR (h:m:s)          0:00:5.0000         
dER/dt (mV/h)       0.0                 
dER (mV)            0                   
dtR (s)             0.0500              
dE/dt               10.000              
dE/dt unit          mV/s                
Ei (V)              -0.800              
vs.                 Ref                 
EL (V)              0.010               
vs.                 Ref                 
record              <I>                 
dI                  0.000               
unit dI             uA                  
tI (s)              0.0000              
step percent        50                  
N                   10                  
E range min (V)     -2.500              
E range max (V)     2.500               
I Range             Auto                
I Range min         Unset               
I Range max         Unset               
I Range init        Unset               
Bandwidth           8                   

Ewe/V	<I>/mA	
-4.1137889E-001	0.000000000000000E+000
-4.1151634E-001	0.000000000000000E+000
-4.1131780E-001	0.000000000000000E+000
-4.1130254E-001	0.000000000000000E+000
-4.1133308E-001	0.000000000000000E+000
-4.1149727E-001	0.000000000000000E+000
-4.1168436E-001	0.000000000000000E+000
-4.1148961E-001	0.000000000000000E+000
-4.1129872E-001	0.000000000000000E+000
-4.1115358E-001	0.000000000000000E+000
-4.1130635E-001	0.000000000000000E+000
-4.1139033E-001	0.000000000000000E+000
-4.1144761E-001	0.000000000000000E+000
-4.1138270E-001	0.000000000000000E+000
-4.1120708E-001	0.000000000000000E+000
-4.1142473E-001	0.000000000000000E+000
-4.1132545E-001	0.000000000000000E+000
-4.1133308E-001	0.000000000000000E+000
-4.1139415E-001	0.000000000000000E+000
-4.1119182E-001	0.000000000000000E+000
-4.1132161E-001	0.000000000000000E+000
-4.1164234E-001	0.000000000000000E+000
-4.1185236E-001	0.000000000000000E+000
-4.1171110E-001	0.000000000000000E+000
-4.1165763E-001	0.000000000000000E+000
-4.1114217E-001	0.000000000000000E+000
-4.1120327E-001	0.000000000000000E+000
-4.1167670E-001	0.000000000000000E+000
-4.1125289E-001	0.000000000000000E+000
-4.1116890E-001	0.000000000000000E+000
-4.1116506E-001	0.000000000000000E+000
-4.1197452E-001	0.000000000000000E+000
-4.1161561E-001	0.000000000000000E+000
-4.1139033E-001	0.000000000000000E+000
-4.1147432E-001	0.000000000000000E+000
-4.1151634E-001	0.000000000000000E+000
-4.1179127E-001	0.000000000000000E+000
-4.1167289E-001	0.000000000000000E+000
-4.1163090E-001	0.000000000000000E+000
-4.1140562E-001	0.000000000000000E+000
-4.1152397E-001	0.000000000000000E+000
-4.1138652E-001	0.000000000000000E+000
-4.1139415E-001	0.000000000000000E+000
-4.1200891E-001	0.000000000000000E+000
-4.1150871E-001	0.000000000000000E+000
-4.1160801E-001	0.000000000000000E+000
-4.1174924E-001	0.000000000000000E+000
-4.1203183E-001	0.000000000000000E+000
-4.1169962E-001	0.000000000000000E+000
-4.1131780E-001	0.000000000000000E+000
-4.1161564E-001	0.000000000000000E+000
-4.1169962E-001	0.000000000000000E+000
-4.1171488E-001	0.000000000000000E+000
-4.1163090E-001	0.000000000000000E+000
-4.1179508E-001	0.000000000000000E+000
-4.1160417E-001	0.000000000000000E+000
-4.1165000E-001	0.000000000000000E+000
-4.1158128E-001	0.000000000000000E+000
-4.1175309E-001	0.000000000000000E+000
-4.1134071E-001	0.000000000000000E+000
-4.1162327E-001	0.000000000000000E+000
-4.1659465E-001	0.000000000000000E+000
-4.1680467E-001	0.000000000000000E+000
-7.8924102E-001	-3.168950822042383E+000
-7.8870106E-001	-3.149838093249649E+000
-7.8783208E-001	-3.124755640272735E+000
-7.8672981E-001	-3.104532818827380E+000
-7.8567404E-001	-3.086670139931401E+000
-7.8472155E-001	-3.071097277380815E+000
-7.8378415E-001	-3.055945656641766E+000
-7.8275216E-001	-3.042489153749031E+000
-7.8180456E-001	-3.029130282777331E+000
-7.8074163E-001	-3.016357797163494E+000
-7.7973866E-001	-3.004523317413060E+000
-7.7877939E-001	-2.992718848641289E+000
-7.7782130E-001	-2.981591548356747E+000
-7.7679920E-001	-2.970661110485086E+000
-7.7584034E-001	-2.959715984761729E+000
-7.7481717E-001	-2.949266980643628E+000
-7.7380604E-001	-2.938569471129902E+000
-7.7282518E-001	-2.928111634596647E+000
-7.7185088E-001	-2.917829518240912E+000
-7.7080369E-001	-2.907775207854264E+000
-7.6982230E-001	-2.897280864141607E+000
-7.6878017E-001	-2.886957326972947E+000
-7.6774788E-001	-2.876935346279858E+000
-7.6676202E-001	-2.866946855628932E+000
-7.6576668E-001	-2.856810177365944E+000
-7.6478893E-001	-2.846589700215802E+000
-7.6377058E-001	-2.836902589985622E+000
-7.6271623E-001	-2.826699880814111E+000
-7.6180875E-001	-2.816931971701261E+000
-7.6080763E-001	-2.807111664226746E+000
-7.5980061E-001	-2.796851585584655E+000
-7.5870305E-001	-2.786846048770030E+000
-7.5776947E-001	-2.777420930840343E+000
-7.5675064E-001	-2.767534330487251E+000
-7.5577354E-001	-2.757453706805352E+000
-7.5482410E-001	-2.747735685220462E+000
-7.5373894E-001	-2.737850178829987E+000
-7.5274694E-001	-2.727884351379331E+000
-7.5183797E-001	-2.717901971881036E+000
-7.5081623E-001	-2.708272442330349E+000
-7.4978054E-001	-2.698520165074752E+000
-7.4873513E-001	-2.688751529488307E+000
-7.4778718E-001	-2.678894916243365E+000
-7.4679118E-001	-2.669480555311394E+000
-7.4574292E-001	-2.659198306224965E+000
-7.4484581E-001	-2.649940970510126E+000
-7.4376720E-001	-2.639858746142293E+000
-7.4282527E-001	-2.630185567118495E+000
-7.4178225E-001	-2.620524952194799E+000
-7.4086612E-001	-2.610825014059188E+000
-7.3980314E-001	-2.601274469660376E+000
-7.3870510E-001	-2.591610928546775E+000
-7.3783040E-001	-2.582251711024185E+000
-7.3681378E-001	-2.572484753474042E+000
-7.3583889E-001	-2.562598954597724E+000
-7.3481029E-001	-2.553176901406713E+000
-7.3383027E-001	-2.543473724689745E+000
-7.3281693E-001	-2.534115368731641E+000
-7.3182696E-001	-2.524287472444549E+000
-7.3075575E-001	-2.514959617345422E+000
-7.2976613E-001	-2.505237500583249E+000
-7.2877163E-001	-2.495469632799981E+000
-7.2781938E-001	-2.486492166088689E+000
-7.2680527E-001	-2.476550276897470E+000
-7.2582006E-001	-2.466934862512122E+000
-7.2484666E-001	-2.457528883384335E+000
-7.2389191E-001	-2.447956124863119E+000
-7.2283757E-001	-2.438367295596336E+000
-7.2186971E-001	-2.429336100540773E+000
-7.2078812E-001	-2.419870820864777E+000
-7.1981752E-001	-2.410490061121964E+000
-7.1877295E-001	-2.400819236205678E+000
-7.1786970E-001	-2.391725096187241E+000
-7.1680766E-001	-2.382115147455975E+000
-7.1584547E-001	-2.372285295691754E+000
-7.1474999E-001	-2.363382845491746E+000
-7.1383041E-001	-2.353624363464339E+000
-7.1286100E-001	-2.344470007276099E+000
-7.1188134E-001	-2.334890362743109E+000
-7.1078032E-001	-2.325486600123071E+000
-7.0991033E-001	-2.316673921490150E+000
-7.0881063E-001	-2.307436258285207E+000
-7.0780671E-001	-2.297687980587838E+000
-7.0684111E-001	-2.288610459477813E+000
-7.0585907E-001	-2.279179063541910E+000
-7.0488846E-001	-2.270061181651222E+000
-7.0386624E-001	-2.260877370558394E+000
-7.0286638E-001	-2.252329137477957E+000
-7.0182616E-001	-2.242365553975109E+000
-7.0078361E-001	-2.232802801662018E+000
-6.9981557E-001	-2.223930396590063E+000
-6.9889051E-001	-2.214806615478469E+000
-6.9784182E-001	-2.205855674489790E+000
-6.9685203E-001	-2.196545352166496E+000
-6.9580770E-001	-2.187582495587841E+000
-6.9486946E-001	-2.177865315366667E+000
-6.9380182E-001	-2.169151510005495E+000
-6.9275671E-001	-2.159965770939994E+000
-6.9179422E-001	-2.150926306291861E+000
-6.9083238E-001	-2.141754908898125E+000
-6.8987089E-001	-2.132938665372343E+000
-6.8877816E-001	-2.124107795579938E+000
-6.8781406E-001	-2.114940092519468E+000
-6.8687814E-001	-2.106005671399604E+000
-6.8583190E-001	-2.097213460664253E+000
-6.8481439E-001	-2.087699490288891E+000
-6.8382692E-001	-2.079105797741143E+000
-6.8287277E-001	-2.069956844465807E+000
-6.8189150E-001	-2.061063695009111E+000
-6.8088770E-001	-2.051971013899205E+000
-6.7982394E-001	-2.043282209329107E+000
-6.7880124E-001	-2.034462471251137E+000
-6.7783481E-001	-2.025610188367184E+000
-6.7684060E-001	-2.016275473668422E+000
-6.7589480E-001	-2.007761159152892E+000
-6.7488766E-001	-1.998785001260259E+000
-6.7381734E-001	-1.989939814957785E+000
-6.7279041E-001	-1.981208122990747E+000
-6.7179424E-001	-1.972256721445802E+000
-6.7086440E-001	-1.963505006200627E+000
-6.6980112E-001	-1.954875015826142E+000
-6.6888428E-001	-1.946147411233845E+000
-6.6785920E-001	-1.937619879627526E+000
-6.6689491E-001	-1.928465857825895E+000
-6.6587776E-001	-1.920323765940136E+000
-6.6487342E-001	-1.911198968005650E+000
-6.6388142E-001	-1.902808143308867E+000
-6.6290265E-001	-1.893682401489322E+000
-6.6183543E-001	-1.885021858586821E+000
-6.6086203E-001	-1.876671843506678E+000
-6.5982074E-001	-1.867166197962238E+000
-6.5886420E-001	-1.859605529890857E+000
-6.5787929E-001	-1.850662276976639E+000
-6.5683883E-001	-1.841887169138143E+000
-6.5591574E-001	-1.833197280222269E+000
-6.5485781E-001	-1.825056011754057E+000
-6.5379196E-001	-1.816130074361958E+000
-6.5282047E-001	-1.807323993931448E+000
-6.5185344E-001	-1.799110609348183E+000
-6.5090770E-001	-1.790711457530666E+000
-6.4977956E-001	-1.782475302188686E+000
-6.4876080E-001	-1.773565217300700E+000
-6.4781576E-001	-1.764952885607878E+000
-6.4694095E-001	-1.756565661817078E+000
-6.4584255E-001	-1.748068993842161E+000
-6.4489245E-001	-1.739782441269464E+000
-6.4383721E-001	-1.731373252096937E+000
-6.4281189E-001	-1.723081477262349E+000
-6.4185923E-001	-1.714399561285973E+000
-6.4089870E-001	-1.706275848364024E+000
-6.3986397E-001	-1.697772738006383E+000
-6.3884789E-001	-1.688926324248309E+000
-6.3792038E-001	-1.681118714994973E+000
-6.3689053E-001	-1.672667679687347E+000
-6.3585407E-001	-1.662604752238153E+000
-6.3490790E-001	-1.655230986762621E+000
-6.3385755E-001	-1.647236286766006E+000
-6.3280439E-001	-1.639124551029120E+000
-6.3188964E-001	-1.630823617456026E+000
-6.3081437E-001	-1.622362297442223E+000
-6.2984860E-001	-1.613905301800479E+000
-6.2882400E-001	-1.605662728061429E+000
-6.2785226E-001	-1.597358598201356E+000
-6.2680709E-001	-1.589549042836381E+000
-6.2590456E-001	-1.579463535676823E+000
-6.2484431E-001	-1.572404275889744E+000
-6.2389243E-001	-1.564107100991574E+000
-6.2285024E-001	-1.556387131964719E+000
-6.2190735E-001	-1.548173323687584E+000
-6.2083101E-001	-1.539819485944054E+000
-6.1987817E-001	-1.531492798278730E+000
-6.1889076E-001	-1.523675034443542E+000
-6.1795580E-001	-1.515182331990577E+000
-6.1688381E-001	-1.506991498172283E+000
-6.1586875E-001	-1.497742568177209E+000
-6.1494297E-001	-1.490635382482352E+000
-6.1389589E-001	-1.482571467343304E+000
-6.1283642E-001	-1.474971438033712E+000
-6.1189395E-001	-1.466473380455966E+000
-6.1091220E-001	-1.458214084445324E+000
-6.0988164E-001	-1.450398259416772E+000
-6.0890120E-001	-1.442668074632233E+000
-6.0791034E-001	-1.434356643231936E+000
-6.0678232E-001	-1.426263868532807E+000
-6.0592318E-001	-1.418697532806878E+000
-6.0497344E-001	-1.409992281899413E+000
-6.0389841E-001	-1.401985738840368E+000
-6.0293567E-001	-1.393971294036476E+000
-6.0188943E-001	-1.386238447907896E+000
-6.0089386E-001	-1.377583374993667E+000
-5.9992939E-001	-1.369797911104538E+000
-5.9892738E-001	-1.361855541528374E+000
-5.9781456E-001	-1.353723893149033E+000
-5.9690118E-001	-1.346495389505718E+000
-5.9590715E-001	-1.338333446532488E+000
-5.9483743E-001	-1.330728192710216E+000
-5.9391010E-001	-1.322437777693216E+000
-5.9286571E-001	-1.314408695808162E+000
-5.9187967E-001	-1.306553512673686E+000
-5.9090674E-001	-1.299088629069118E+000
-5.8988100E-001	-1.290930666857296E+000
-5.8888125E-001	-1.282830691447963E+000
-5.8789402E-001	-1.275086727319064E+000
-5.8688539E-001	-1.267744581180594E+000
-5.8585805E-001	-1.259655104881081E+000
-5.8486491E-001	-1.251809753576413E+000
-5.8395869E-001	-1.243919994820049E+000
-5.8286977E-001	-1.236221191369825E+000
-5.8186799E-001	-1.228134745062848E+000
-5.8091635E-001	-1.220270375686658E+000
-5.7991254E-001	-1.212798472769833E+000
-5.7889837E-001	-1.204779594214610E+000
-5.7783502E-001	-1.197172858786800E+000
-5.7691807E-001	-1.189324240717621E+000
-5.7587945E-001	-1.181450618418046E+000
-5.7491291E-001	-1.173926685419344E+000
-5.7389128E-001	-1.166102290981335E+000
-5.7292682E-001	-1.158562798160405E+000
-5.7191384E-001	-1.150779813390088E+000
-5.7087523E-001	-1.143426027148958E+000
-5.6988436E-001	-1.135140774324803E+000
-5.6896418E-001	-1.127836134698658E+000
-5.6792921E-001	-1.120318792484426E+000
-5.6691873E-001	-1.112451871420376E+000
-5.6582046E-001	-1.104851839718992E+000
-5.6492555E-001	-1.097057686083850E+000
-5.6393981E-001	-1.089582115861674E+000
-5.6293195E-001	-1.081635215216208E+000
-5.6188053E-001	-1.073668558463527E+000
-5.6084377E-001	-1.066328678556065E+000
-5.5993545E-001	-1.059023237890665E+000
-5.5891281E-001	-1.051463954527287E+000
-5.5789924E-001	-1.044253224024062E+000
-5.5686492E-001	-1.036199343839184E+000
-5.5584168E-001	-1.028675548641854E+000
-5.5488551E-001	-1.021480208193815E+000
-5.5393034E-001	-1.014263153766042E+000
-5.5292064E-001	-1.006368269291154E+000
-5.5185741E-001	-9.998849663469522E-001
-5.5099022E-001	-9.920693372410749E-001
-5.4992235E-001	-9.839860202463173E-001
-5.4890162E-001	-9.760301558783766E-001
-5.4792076E-001	-9.690342316473011E-001
-5.4691303E-001	-9.614172815311690E-001
-5.4595304E-001	-9.538103587649509E-001
-5.4493910E-001	-9.465625499961554E-001
-5.4393381E-001	-9.394317681295643E-001
-5.4300112E-001	-9.319256473746509E-001
-5.4198074E-001	-9.247733478744831E-001
-5.4088408E-001	-9.171472626148809E-001
-5.4001158E-001	-9.097492915612690E-001
-5.3896308E-001	-9.023861595325968E-001
-5.3791755E-001	-8.951428446296221E-001
-5.3690857E-001	-8.879445414576281E-001
-5.3585279E-001	-8.804413514832650E-001
-5.3495336E-001	-8.728112628263376E-001
-5.3393418E-001	-8.657111314435770E-001
-5.3289002E-001	-8.581574520579092E-001
-5.3190929E-001	-8.508883969670897E-001
-5.3088737E-001	-8.433776205336603E-001
-5.2981097E-001	-8.362202023466438E-001
-5.2890188E-001	-8.284741881309543E-001
-5.2789378E-001	-8.212991109876704E-001
-5.2694815E-001	-8.141483850777078E-001
-5.2595830E-001	-8.067039487582388E-001
-5.2489603E-001	-7.993747596111559E-001
-5.2389181E-001	-7.916316585960210E-001
-5.2288419E-001	-7.844234302544706E-001
-5.2192092E-001	-7.778912391513551E-001
-5.2089059E-001	-7.705872440365731E-001
-5.1992297E-001	-7.641943496807961E-001
-5.1896578E-001	-7.572991730714289E-001
-5.1795161E-001	-7.494781350509996E-001
-5.1702708E-001	-7.421056718468195E-001
-5.1585346E-001	-7.349107478641805E-001
-5.1490885E-001	-7.275172196742545E-001
-5.1388305E-001	-7.202115835778464E-001
-5.1292861E-001	-7.131129245239265E-001
-5.1193315E-001	-7.060356142896178E-001
-5.1090026E-001	-6.989519791524543E-001
-5.0997370E-001	-6.914709773328569E-001
-5.0894618E-001	-6.841200192769374E-001
-5.0795186E-001	-6.764149014443621E-001
-5.0697869E-001	-6.695698663178433E-001
-5.0585419E-001	-6.632987847896628E-001
-5.0495291E-001	-6.559035645376463E-001
-5.0393760E-001	-6.487194690163474E-001
-5.0286472E-001	-6.413704708080594E-001
-5.0190830E-001	-6.349575436561903E-001
-5.0096416E-001	-6.279134172256343E-001
-5.0000542E-001	-6.208140738998305E-001
-4.9889493E-001	-6.140247177176672E-001
-4.9787608E-001	-6.072980853280532E-001
-4.9691448E-001	-5.997296136424506E-001
-4.9600238E-001	-5.925086557373227E-001
-4.9495846E-001	-5.851910900738506E-001
-4.9389562E-001	-5.782630841242717E-001
-4.9296087E-001	-5.715880370526412E-001
-4.9197215E-001	-5.647333839011408E-001
-4.9093276E-001	-5.574003640828185E-001
-4.8995590E-001	-5.501879640613421E-001
-4.8889202E-001	-5.424751198540161E-001
-4.8793501E-001	-5.359455340100220E-001
-4.8694259E-001	-5.291894585997969E-001
-4.8591146E-001	-5.218636522552442E-001
-4.8490331E-001	-5.150187540909892E-001
-4.8391530E-001	-5.079124602316709E-001
-4.8285577E-001	-5.009228133906891E-001
-4.8186716E-001	-4.942722423427481E-001
-4.8096779E-001	-4.873552451393133E-001
-4.7992373E-001	-4.803334226900775E-001
-4.7900170E-001	-4.738076292339690E-001
-4.7794560E-001	-4.668762798386590E-001
-4.7687647E-001	-4.605141103405650E-001
-4.7595170E-001	-4.525363610978097E-001
-4.7475260E-001	-4.452946778689318E-001
-4.7362423E-001	-4.385713171903731E-001
-4.7270933E-001	-4.311538114573832E-001
-4.7157884E-001	-4.244850395868216E-001
-4.7074199E-001	-4.176829952608667E-001
-4.6967611E-001	-4.104541576859468E-001
-4.6870703E-001	-4.038722476473549E-001
-4.6766698E-001	-3.973907610332539E-001
-4.6650282E-001	-3.902149938528767E-001
-4.6568081E-001	-3.833652467087474E-001
-4.6467939E-001	-3.769210646687848E-001
-4.6372643E-001	-3.695153800662965E-001
-4.6267858E-001	-3.627212535658924E-001
-4.6168438E-001	-3.563728977891585E-001
-4.6066302E-001	-3.494104168908607E-001
-4.5972660E-001	-3.425038460021220E-001
-4.5873663E-001	-3.362801992506892E-001
-4.5764974E-001	-3.289050847034760E-001
-4.5667645E-001	-3.224494188196130E-001
-4.5565167E-001	-3.162975955961480E-001
-4.5474929E-001	-3.094670796038024E-001
-4.5368546E-001	-3.024492573889883E-001
-4.5268252E-001	-2.951819572459755E-001
-4.5173007E-001	-2.889888879712574E-001
-4.5059156E-001	-2.822753175817156E-001
-4.4956622E-001	-2.756133007518677E-001
-4.4871402E-001	-2.689465875909834E-001
-4.4768691E-001	-2.620954879180157E-001
-4.4658524E-001	-2.550419350903681E-001
-4.4560614E-001	-2.487114580969019E-001
-4.4469485E-001	-2.418421266462509E-001
-4.4369069E-001	-2.339288406700211E-001
-4.4266590E-001	-2.274527130648487E-001
-4.4167969E-001	-2.211808787175915E-001
-4.4071057E-001	-2.150729901053394E-001
-4.3973640E-001	-2.082545552747677E-001
-4.3861678E-001	-2.015782332185794E-001
-4.3765718E-001	-1.948780116312286E-001
-4.3668494E-001	-1.884445244860316E-001
-4.3568495E-001	-1.817478142437281E-001
-4.3468362E-001	-1.752172611647316E-001
-4.3356347E-001	-1.668530653092870E-001
-4.3254375E-001	-1.611352675352924E-001
-4.3165949E-001	-1.553205059319294E-001
-4.3061110E-001	-1.487035023703895E-001
-4.2963511E-001	-1.424523693578390E-001
-4.2864367E-001	-1.360440964630998E-001
-4.2768353E-001	-1.297796999483751E-001
-4.2661631E-001	-1.229844782156524E-001
-4.2565396E-001	-1.162444628447574E-001
-4.2463204E-001	-1.098473394565562E-001
-4.2375743E-001	-1.011870761781375E-001
-4.2266664E-001	-9.604398177715484E-002
-4.2172998E-001	-8.988228467879483E-002
-4.2061946E-001	-8.372999657876784E-002
-4.1967362E-001	-7.727233388158672E-002
-4.1868082E-001	-7.019614963792264E-002
-4.1765159E-001	-6.413903151190387E-002
-4.1673115E-001	-5.777801190337326E-002
-4.1555175E-001	-5.110156511956887E-002
-4.1443121E-001	-4.410103982962321E-002
-4.1341212E-001	-3.724744861692192E-002
-4.1234609E-001	-3.019805469860629E-002
-4.1134501E-001	-2.348859920554475E-002
-4.1031727E-001	-1.695735949989206E-002
-4.0939686E-001	-1.144800832520967E-002
-4.0834683E-001	-4.871951899042831E-003
-4.0732250E-001	2.534378046605980E-003
-4.0629411E-001	8.569537918514530E-003
-4.0528414E-001	1.535608768851182E-002
-4.0425342E-001	2.181114710261145E-002
-4.0337116E-001	2.829435915703443E-002
-4.0239012E-001	3.444574023941865E-002
-4.0127009E-001	4.098768284860810E-002
-4.0033481E-001	4.717575998424950E-002
-3.9931309E-001	5.378004471996556E-002
-3.9829668E-001	6.011539714031482E-002
-3.9728799E-001	6.682582774751467E-002
-3.9632702E-001	7.304875486518370E-002
-3.9519554E-001	8.017057138150241E-002
-3.9426687E-001	8.618512818658780E-002
-3.9324632E-001	9.279871065211537E-002
-3.9233142E-001	9.892516949696972E-002
-3.9129773E-001	1.051940781029840E-001
-3.9026454E-001	1.126822612642318E-001
-3.8908732E-001	1.194115926822028E-001
-3.8811982E-001	1.260445303180155E-001
-3.8704807E-001	1.320556736159855E-001
-3.8607261E-001	1.387379452827622E-001
-3.8501748E-001	1.451144917281688E-001
-3.8394576E-001	1.514882025229272E-001
-3.8307697E-001	1.581829742666470E-001
-3.8202393E-001	1.638170523500002E-001
-3.8100860E-001	1.701123970452061E-001
-3.8006172E-001	1.764671663857175E-001
-3.7907937E-001	1.835151849900960E-001
-3.7798396E-001	1.895876075291593E-001
-3.7713799E-001	1.954491520817898E-001
-3.7603432E-001	2.015771383626588E-001
-3.7497127E-001	2.080535149392758E-001
-3.7411562E-001	2.144574154927223E-001
-3.7299451E-001	2.203135040278245E-001
-3.7195033E-001	2.267074958826791E-001
-3.7100220E-001	2.330548375224062E-001
-3.6998188E-001	2.392870505443883E-001
-3.6908460E-001	2.471560951567795E-001
-3.6813405E-001	2.516229505547223E-001
-3.6687127E-001	2.579105403619222E-001
-3.6604127E-001	2.642869727860351E-001
-3.6501449E-001	2.700943745051827E-001
-3.6405188E-001	2.757365985739015E-001
-3.6301434E-001	2.824706158667996E-001
-3.6204046E-001	2.883796945076300E-001
-3.6096749E-001	2.945876339174527E-001
-3.6005667E-001	3.004262981796431E-001
-3.5908639E-001	3.063639127476898E-001
-3.5795766E-001	3.133681389606660E-001
-3.5704571E-001	3.195309364874273E-001
-3.5599697E-001	3.255566114007875E-001
-3.5488370E-001	3.315871562118877E-001
-3.5403010E-001	3.377054725307227E-001
-3.5305879E-001	3.438970520747486E-001
-3.5212415E-001	3.497024593851776E-001
-3.5094875E-001	3.555065831514437E-001
-3.5000965E-001	3.622607656720058E-001
-3.4894723E-001	3.676076772486914E-001
-3.4809649E-001	3.744943555168545E-001
-3.4705725E-001	3.798490120787852E-001
-3.4592810E-001	3.854363246202730E-001
-3.4504649E-001	3.921116190031171E-001
-3.4397823E-001	3.976984865687507E-001
-3.4306291E-001	4.040281068541365E-001
-3.4189260E-001	4.098864043200425E-001
-3.4100425E-001	4.166192293029169E-001
-3.3995059E-001	4.221808741090483E-001
-3.3895335E-001	4.282995184400598E-001
-3.3798820E-001	4.345599134901068E-001
-3.3698303E-001	4.402705918581953E-001
-3.3591104E-001	4.468204670896126E-001
-3.3498532E-001	4.525721116612349E-001
-3.3395612E-001	4.583431454884963E-001
-3.3300743E-001	4.641147725008175E-001
-3.3200175E-001	4.703976180128491E-001
-3.3090350E-001	4.764795728429556E-001
-3.2997084E-001	4.827932425671170E-001
-3.2894349E-001	4.882314995759076E-001
-3.2811037E-001	4.941297594912033E-001
-3.2695839E-001	5.003528497699232E-001
-3.2598093E-001	5.060764389733468E-001
-3.2504892E-001	5.125379101132603E-001
-3.2386348E-001	5.182363226733813E-001
-3.2303599E-001	5.242723324508587E-001
-3.2213396E-001	5.298277163159446E-001
-3.2100740E-001	5.363692095572210E-001
-3.2008100E-001	5.421169524391525E-001
-3.1900364E-001	5.473587107905207E-001
-3.1802869E-001	5.531254423161360E-001
-3.1696743E-001	5.592062983109996E-001
-3.1605223E-001	5.654160995507120E-001
-3.1503090E-001	5.730568787289996E-001
-3.1415293E-001	5.771649053527241E-001
-3.1296378E-001	5.829008871164625E-001
-3.1194508E-001	5.887262774976332E-001
-3.1086004E-001	5.946045628300425E-001
-3.1004229E-001	6.003916934243207E-001
-3.0915308E-001	6.064283740189333E-001
-3.0795878E-001	6.117916752894716E-001
-3.0703729E-001	6.178273604285449E-001
-3.0601570E-001	6.237301257335488E-001
-3.0506963E-001	6.291118380096199E-001
-3.0404919E-001	6.354174747389001E-001
-3.0303407E-001	6.413236712967914E-001
-3.0200419E-001	6.477014494163011E-001
-3.0098501E-001	6.534957949155431E-001
-3.0002204E-001	6.592240446695588E-001
-2.9896843E-001	6.652490307611405E-001
-2.9803708E-001	6.709835139317271E-001
-2.9691246E-001	6.764986517114807E-001
-2.9604870E-001	6.825025741148893E-001
-2.9500043E-001	6.881911281802546E-001
-2.9394990E-001	6.937329945740878E-001
-2.9307172E-001	6.997508689485201E-001
-2.9197225E-001	7.056302650083275E-001
-2.9102489E-001	7.111923518004240E-001
-2.8999731E-001	7.175491192136683E-001
-2.8898972E-001	7.224083519998135E-001
-2.8806463E-001	7.285210237734852E-001
-2.8701439E-001	7.341525694579349E-001
-2.8591537E-001	7.406942540848682E-001
-2.8501126E-001	7.452089441595220E-001
-2.8407598E-001	7.511788285198051E-001
-2.8296745E-001	7.570061580174468E-001
-2.8200459E-001	7.632202197004254E-001
-2.8106812E-001	7.685802224593630E-001
-2.7998537E-001	7.742652701972865E-001
-2.7905241E-001	7.797122387974369E-001
-2.7801791E-001	7.861881411090081E-001
-2.7694324E-001	7.913670861334730E-001
-2.7601495E-001	7.969048477157408E-001
-2.7509838E-001	8.028681113950906E-001
-2.7401483E-001	8.082249790981959E-001
-2.7302822E-001	8.141291004916038E-001
-2.7196610E-001	8.191249635220732E-001
-2.7088678E-001	8.242360265166662E-001
-2.6996696E-001	8.314289131926174E-001
-2.6913735E-001	8.366173879257204E-001
-2.6802304E-001	8.421569823942807E-001
-2.6684341E-001	8.477185603093247E-001
-2.6600069E-001	8.533248109378970E-001
-2.6491305E-001	8.590291117628437E-001
-2.6403719E-001	8.649846515445798E-001
-2.6315707E-001	8.704086223671954E-001
-2.6184273E-001	8.759606258460764E-001
-2.6088390E-001	8.817466573306829E-001
-2.6005861E-001	8.876973345142516E-001
-2.5905409E-001	8.927901659022908E-001
-2.5799388E-001	8.977732905359250E-001
-2.5709003E-001	9.031640821138072E-001
-2.5595114E-001	9.088789907594537E-001
-2.5495833E-001	9.145298899599794E-001
-2.5407541E-001	9.202157208238289E-001
-2.5300762E-001	9.256082426894636E-001
-2.5204203E-001	9.314442366637570E-001
-2.5106212E-001	9.363253150389119E-001
-2.4986899E-001	9.420480115546098E-001
-2.4892990E-001	9.472846656485832E-001
-2.4804182E-001	9.527494060442869E-001
-2.4707611E-001	9.584049737011977E-001
-2.4597260E-001	9.635724942717330E-001
-2.4492675E-001	9.698135848985157E-001
-2.4395187E-001	9.751497773384621E-001
-2.4302021E-001	9.802750354563743E-001
-2.4188751E-001	9.860172790218513E-001
-2.4096134E-001	9.915538762730556E-001
-2.3997217E-001	9.971074839984961E-001
-2.3899871E-001	1.002196403967913E+000
-2.3789269E-001	1.007532919308655E+000
-2.3696589E-001	1.013122922844356E+000
-2.3604481E-001	1.018222306575309E+000
-2.3502640E-001	1.023923005632778E+000
-2.3400651E-001	1.029463905427193E+000
-2.3306631E-001	1.034579071392592E+000
-2.3205407E-001	1.040311662687191E+000
-2.3088185E-001	1.045669447216723E+000
-2.2985367E-001	1.050846203897697E+000
-2.2886011E-001	1.056502496340762E+000
-2.2807691E-001	1.061499503613630E+000
-2.2700122E-001	1.067174168828512E+000
-2.2595839E-001	1.072308980066467E+000
-2.2497647E-001	1.077572858030049E+000
-2.2390902E-001	1.082943419405467E+000
-2.2295319E-001	1.088061832029508E+000
-2.2198816E-001	1.093509396930919E+000
-2.2098215E-001	1.099749943066357E+000
-2.1982133E-001	1.105778441936881E+000
-2.1880941E-001	1.111071148945658E+000
-2.1778153E-001	1.117077690445713E+000
-2.1675800E-001	1.122260416685428E+000
-2.1580768E-001	1.127516142298412E+000
-2.1482319E-001	1.132453692042167E+000
-2.1381560E-001	1.138038065284491E+000
-2.1285130E-001	1.143682152508539E+000
-2.1181330E-001	1.148037578772618E+000
-2.1080483E-001	1.153643633894355E+000
-2.0981720E-001	1.158947388309691E+000
-2.0882125E-001	1.164083343275168E+000
-2.0780857E-001	1.169075102165895E+000
-2.0683086E-001	1.174948106912627E+000
-2.0578846E-001	1.179589501271640E+000
-2.0477980E-001	1.184888692641701E+000
-2.0379032E-001	1.190966264057696E+000
-2.0286283E-001	1.194989191713158E+000
-2.0173748E-001	1.200791461600200E+000
-2.0080449E-001	1.206222152148468E+000
-1.9980182E-001	1.210732657186412E+000
-1.9878340E-001	1.215588449052088E+000
-1.9780700E-001	1.221025361485092E+000
-1.9677262E-001	1.227727761699096E+000
-1.9588237E-001	1.231980168433100E+000
-1.9480117E-001	1.236545594991266E+000
-1.9387688E-001	1.241712574191673E+000
-1.9286926E-001	1.246960785239940E+000
-1.9184455E-001	1.251577099073419E+000
-1.9081396E-001	1.257378709399037E+000
-1.8984433E-001	1.261188065012298E+000
-1.8883219E-001	1.266655458661480E+000
-1.8781979E-001	1.273077965610561E+000
-1.8680644E-001	1.277443449392361E+000
-1.8573798E-001	1.282913603246431E+000
-1.8479888E-001	1.287967305492472E+000
-1.8378684E-001	1.293152119826388E+000
-1.8287723E-001	1.298027016696384E+000
-1.8176885E-001	1.302631619489850E+000
-1.8085206E-001	1.308627226562411E+000
-1.7982514E-001	1.313625543961678E+000
-1.7886397E-001	1.317941546854045E+000
-1.7776215E-001	1.323423513950420E+000
-1.7681758E-001	1.328425139326740E+000
-1.7583056E-001	1.333420862064321E+000
-1.7478839E-001	1.338031416709897E+000
-1.7373835E-001	1.343163230628880E+000
-1.7280222E-001	1.348104576683708E+000
-1.7179249E-001	1.352853569824063E+000
-1.7077790E-001	1.357620974519739E+000
-1.6978450E-001	1.362501890984952E+000
-1.6868186E-001	1.367685062895488E+000
-1.6779751E-001	1.372092813115433E+000
-1.6680431E-001	1.376955752709398E+000
-1.6579930E-001	1.381396048270473E+000
-1.6482157E-001	1.386978861358431E+000
-1.6383283E-001	1.391454368553777E+000
-1.6285190E-001	1.396683051488861E+000
-1.6179834E-001	1.402013184157785E+000
-1.6083655E-001	1.406540496481787E+000
-1.5982933E-001	1.411965188045066E+000
-1.5879208E-001	1.416983323516675E+000
-1.5779527E-001	1.422143768519170E+000
-1.5679997E-001	1.426574982422075E+000
-1.5572278E-001	1.431726113375687E+000
-1.5482698E-001	1.436071342754147E+000
-1.5376560E-001	1.441377291395682E+000
-1.5281475E-001	1.445475642465880E+000
-1.5180926E-001	1.451136405269303E+000
-1.5083443E-001	1.455670195834685E+000
-1.4977325E-001	1.459638211048311E+000
-1.4879069E-001	1.465485650632118E+000
-1.4777532E-001	1.470283792489646E+000
-1.4679287E-001	1.474831440796446E+000
-1.4583533E-001	1.478765196270416E+000
-1.4477545E-001	1.483931352919445E+000
-1.4381884E-001	1.488960562480813E+000
-1.4282672E-001	1.493492662630707E+000
-1.4190175E-001	1.498522104941156E+000
-1.4078330E-001	1.502819860974942E+000
-1.3975893E-001	1.507723380708029E+000
-1.3880529E-001	1.512098508357226E+000
-1.3783960E-001	1.517040332296375E+000
-1.3686764E-001	1.521710746266223E+000
-1.3578315E-001	1.526102631104806E+000
-1.3489909E-001	1.530413619760012E+000
-1.3376421E-001	1.535803292636521E+000
-1.3279796E-001	1.539882253586718E+000
-1.3182643E-001	1.544608230530113E+000
-1.3078511E-001	1.550082734889454E+000
-1.2983602E-001	1.555167419323741E+000
-1.2880363E-001	1.559466811655847E+000
-1.2788554E-001	1.564800682581129E+000
-1.2676896E-001	1.568910306043090E+000
-1.2578630E-001	1.573331332868996E+000
-1.2483280E-001	1.578692245262637E+000
-1.2376818E-001	1.582985472790103E+000
-1.2286595E-001	1.588059587887031E+000
-1.2184329E-001	1.591650342775717E+000
-1.2084191E-001	1.597078154417098E+000
-1.1988663E-001	1.601991841086633E+000
-1.1881113E-001	1.606349028095032E+000
-1.1783833E-001	1.610404749555391E+000
-1.1692638E-001	1.615168996983101E+000
-1.1579469E-001	1.620184011481427E+000
-1.1486620E-001	1.624136620637579E+000
-1.1385331E-001	1.628625685694040E+000
-1.1283523E-001	1.631795251969692E+000
-1.1181369E-001	1.635531039977515E+000
-1.1086251E-001	1.640435894054392E+000
-1.0984404E-001	1.645379162825821E+000
-1.0890266E-001	1.649744867450657E+000
-1.0788020E-001	1.653759406120695E+000
-1.0684795E-001	1.658829617241445E+000
-1.0586903E-001	1.664139455115354E+000
-1.0475346E-001	1.668616672632869E+000
-1.0379462E-001	1.673269358505639E+000
-1.0285471E-001	1.677516603083520E+000
-1.0177710E-001	1.682070648780581E+000
-1.0085984E-001	1.686943557650297E+000
-9.9902734E-002	1.691212217840885E+000
-9.8826200E-002	1.695426869447587E+000
-9.7841091E-002	1.698864667968010E+000
-9.6851274E-002	1.704436044450157E+000
-9.5807396E-002	1.709539135573085E+000
-9.4885707E-002	1.714112274356435E+000
-9.3845852E-002	1.718417676234697E+000
-9.2884071E-002	1.722711789939137E+000
-9.1761507E-002	1.727445604920005E+000
-9.0854011E-002	1.731634556971208E+000
-8.9820959E-002	1.735597654073317E+000
-8.8830836E-002	1.740437039364701E+000
-8.7808713E-002	1.744320661105490E+000
-8.6881511E-002	1.748461047532384E+000
-8.5855104E-002	1.753051701304390E+000
-8.4874779E-002	1.758246239688653E+000
-8.3868027E-002	1.762361906192920E+000
-8.2754038E-002	1.766789253851496E+000
-8.1775807E-002	1.771354966969398E+000
-8.0860689E-002	1.774823860161831E+000
-7.9822898E-002	1.779849880661963E+000
-7.8797117E-002	1.783896752253725E+000
-7.7796727E-002	1.787810157018683E+000
-7.6783352E-002	1.792357107373881E+000
-7.5856186E-002	1.796553788637674E+000
-7.4760973E-002	1.801196935276191E+000
-7.3854677E-002	1.804121775312197E+000
-7.2816178E-002	1.808873083856373E+000
-7.1790770E-002	1.813816541047011E+000
-7.0776857E-002	1.818143776181376E+000
-6.9852337E-002	1.822769598276530E+000
-6.8833709E-002	1.826440786046012E+000
-6.7816809E-002	1.830716623757923E+000
-6.6774793E-002	1.835046394279710E+000
-6.5929048E-002	1.838921490090861E+000
-6.4773694E-002	1.843445176197299E+000
-6.3814133E-002	1.847227101800618E+000
-6.2914923E-002	1.850755151223272E+000
-6.1824810E-002	1.856018259935439E+000
-6.0811471E-002	1.860400477493243E+000
-5.9848197E-002	1.863553759400494E+000
-5.8882225E-002	1.868783201398610E+000
-5.7877112E-002	1.872332464765629E+000
-5.6827720E-002	1.876842927877547E+000
-5.5840589E-002	1.880851332278255E+000
-5.4895449E-002	1.885037372233697E+000
-5.3786021E-002	1.889083187061338E+000
-5.2839324E-002	1.893235092487540E+000
-5.1881962E-002	1.897099908303339E+000
-5.0909996E-002	1.901073595164004E+000
-4.9937397E-002	1.904736160812084E+000
-4.8859365E-002	1.909701370254714E+000
-4.7889728E-002	1.912727960281907E+000
-4.6863239E-002	1.917607718091848E+000
-4.5824453E-002	1.921376507315369E+000
-4.4782795E-002	1.925677046979636E+000
-4.3888789E-002	1.929563823397523E+000
-4.2756449E-002	1.933642196158569E+000
-4.1847859E-002	1.936209243408641E+000
-4.0935341E-002	1.941187180578709E+000
-3.9886370E-002	1.945548202980458E+000
-3.8849115E-002	1.949240053320697E+000
-3.7889615E-002	1.953648665712935E+000
-3.6901735E-002	1.957202142311459E+000
-3.5831820E-002	1.961116399392228E+000
-3.4814402E-002	1.965489877042951E+000
-3.3862803E-002	1.968622606109690E+000
-3.2889493E-002	1.972506059562207E+000
-3.1886831E-002	1.976684013726526E+000
-3.0902775E-002	1.980056472674558E+000
-2.9905267E-002	1.984279221056589E+000
-2.8934445E-002	1.988712110729132E+000
-2.7840501E-002	1.993223761242851E+000
-2.6833007E-002	1.996308549188392E+000
-2.5762713E-002	2.000140977954423E+000
-2.4874751E-002	2.004010968738132E+000
-2.3893625E-002	2.007838017275867E+000
-2.2902388E-002	2.011332770188645E+000
-2.1821814E-002	2.015516543277984E+000
-2.0891646E-002	2.019422806828509E+000
-1.9872572E-002	2.023341737687588E+000
-1.8891484E-002	2.027330441331429E+000
-1.7888604E-002	2.030905554599123E+000
-1.6910849E-002	2.034221121558431E+000
-1.5902609E-002	2.038095924313422E+000
-1.4937734E-002	2.041752127360867E+000
-1.3881670E-002	2.045724142204822E+000
-1.2870034E-002	2.049663317424278E+000
-1.1891148E-002	2.053334259640287E+000
-1.0931615E-002	2.056873089461414E+000
-9.8641887E-003	2.060359159277539E+000
-8.8523580E-003	2.065174021852009E+000
-7.8994641E-003	2.068138860717976E+000
-6.9014048E-003	2.071660475046546E+000
-5.9585455E-003	2.075034683482784E+000
-4.8768609E-003	2.079310906154136E+000
-3.8658616E-003	2.082339289563681E+000
-2.8769916E-003	2.086298944257519E+000
-1.8519238E-003	2.090142223846032E+000
-8.9225930E-004	2.094170307947525E+000
1.2252900E-004	2.097782844566881E+000
1.1280419E-003	2.099599904208269E+000
2.1195249E-003	2.104800211058727E+000
3.1535125E-003	2.107974525737426E+000
4.1330373E-003	2.112129256957115E+000
5.1103081E-003	2.116023462679649E+000
6.0919519E-003	2.118778169645228E+000
6.7241751E-003	2.121087302764257E+000
6.6516274E-003	2.122115641832352E+000