EC-Lab ASCII FILE
Nb header lines : 63                          

Linear Sweep Voltammetry

Run on channel : 6 (SN 13765)
User : 
Electrode connection : standard
Potential control : Ewe
Ewe ctrl range : min = -2.50 V, max = 2.50 V
Ewe,I filtering : <None>
Safety Limits :
	Do not start on E overload
Channel : Floating
Acquisition started on : 07/13/2026 15:37:15.079
Technique started on : 07/13/2026 15:37:16.076
Loaded Setting File :  C:\Users\EEM-620\Desktop\Wade\20260630\LSV 1mg MoS2 1_C06.mpr
Saved on :
	File : N719_0713-b-1_C06.mpr
	Directory : C:\Users\EEM-620\Desktop\Wade\abao\20260713\
	Host : 192.109.209.200
Device : VSP-300 (SN 0025)
Address : 192.109.209.129
EC-LAB for windows v11.62 (software)
Internet server v27.00 (firmware)
Command interpretor v12.02 (firmware)
Electrode material : Au/Pd
Initial state : 
Electrolyte : NaCl (0.2M)
Comments : Fe(CN)63-/Fe(CN)64- 5.10-3 M
Cable : ULC
Reference electrode : SCE Saturated Calomel Electrode (0.241 V)
Electrode surface area : 0.001 cm2
Characteristic mass : 0.001 g
Equivalent Weight : 0.000 g/eq.
Density : 0.000 g/cm3
Volume (V) : 0.001 cm3
Cycle Definition : Charge/Discharge alternance
tR (h:m:s)          0:00:5.0000         
dER/dt (mV/h)       0.0                 
dER (mV)            0                   
dtR (s)             0.0500              
dE/dt               10.000              
dE/dt unit          mV/s                
Ei (V)              -0.800              
vs.                 Ref                 
EL (V)              0.010               
vs.                 Ref                 
record              <I>                 
dI                  0.000               
unit dI             uA                  
tI (s)              0.0000              
step percent        50                  
N                   10                  
E range min (V)     -2.500              
E range max (V)     2.500               
I Range             Auto                
I Range min         Unset               
I Range max         Unset               
I Range init        Unset               
Bandwidth           8                   

Ewe/V	<I>/mA	
-6.0790265E-001	0.000000000000000E+000
-6.0724586E-001	0.000000000000000E+000
-6.0753989E-001	0.000000000000000E+000
-6.0743296E-001	0.000000000000000E+000
-6.0773844E-001	0.000000000000000E+000
-6.0771555E-001	0.000000000000000E+000
-6.0821187E-001	0.000000000000000E+000
-6.0766208E-001	0.000000000000000E+000
-6.0766590E-001	0.000000000000000E+000
-6.0800952E-001	0.000000000000000E+000
-6.0820043E-001	0.000000000000000E+000
-6.0796756E-001	0.000000000000000E+000
-6.0808212E-001	0.000000000000000E+000
-6.0800189E-001	0.000000000000000E+000
-6.0745203E-001	0.000000000000000E+000
-6.0806298E-001	0.000000000000000E+000
-6.0832644E-001	0.000000000000000E+000
-6.0810882E-001	0.000000000000000E+000
-6.0843337E-001	0.000000000000000E+000
-6.0844481E-001	0.000000000000000E+000
-6.0839897E-001	0.000000000000000E+000
-6.0843337E-001	0.000000000000000E+000
-6.0878843E-001	0.000000000000000E+000
-6.0814697E-001	0.000000000000000E+000
-6.0804009E-001	0.000000000000000E+000
-6.0837227E-001	0.000000000000000E+000
-6.0815847E-001	0.000000000000000E+000
-6.0813171E-001	0.000000000000000E+000
-6.0896796E-001	0.000000000000000E+000
-6.0820425E-001	0.000000000000000E+000
-6.0830736E-001	0.000000000000000E+000
-6.0814703E-001	0.000000000000000E+000
-6.0827297E-001	0.000000000000000E+000
-6.0826921E-001	0.000000000000000E+000
-6.0862809E-001	0.000000000000000E+000
-6.0825771E-001	0.000000000000000E+000
-6.0884571E-001	0.000000000000000E+000
-6.0819280E-001	0.000000000000000E+000
-6.0886860E-001	0.000000000000000E+000
-6.0847151E-001	0.000000000000000E+000
-6.0846770E-001	0.000000000000000E+000
-6.0878080E-001	0.000000000000000E+000
-6.0879225E-001	0.000000000000000E+000
-6.0892975E-001	0.000000000000000E+000
-6.0850209E-001	0.000000000000000E+000
-6.0907865E-001	0.000000000000000E+000
-6.0815078E-001	0.000000000000000E+000
-6.0850972E-001	0.000000000000000E+000
-6.0810119E-001	0.000000000000000E+000
-6.0868919E-001	0.000000000000000E+000
-6.0843718E-001	0.000000000000000E+000
-6.0880756E-001	0.000000000000000E+000
-6.0879612E-001	0.000000000000000E+000
-6.0840660E-001	0.000000000000000E+000
-6.0892206E-001	0.000000000000000E+000
-6.0939175E-001	0.000000000000000E+000
-6.0865486E-001	0.000000000000000E+000
-6.0923523E-001	0.000000000000000E+000
-6.0855556E-001	0.000000000000000E+000
-6.0886484E-001	0.000000000000000E+000
-6.0883045E-001	0.000000000000000E+000
-6.1445481E-001	0.000000000000000E+000
-6.1431354E-001	0.000000000000000E+000
-7.8928298E-001	-1.478887519110806E+000
-7.8878462E-001	-1.470020430132189E+000
-7.8782046E-001	-1.455454395187118E+000
-7.8677684E-001	-1.442712111605537E+000
-7.8568262E-001	-1.431923531682672E+000
-7.8479999E-001	-1.421380979181439E+000
-7.8382832E-001	-1.411650041325224E+000
-7.8279114E-001	-1.401317296772433E+000
-7.8177029E-001	-1.391495693061083E+000
-7.8076965E-001	-1.382243599742651E+000
-7.7978945E-001	-1.372903817936274E+000
-7.7876455E-001	-1.364491724305685E+000
-7.7775359E-001	-1.355308889790816E+000
-7.7684999E-001	-1.346053448750730E+000
-7.7578360E-001	-1.337494841466349E+000
-7.7473754E-001	-1.328513286731852E+000
-7.7379364E-001	-1.320187567008546E+000
-7.7272683E-001	-1.311841332664088E+000
-7.7179241E-001	-1.304555515310280E+000
-7.7084929E-001	-1.296392921220667E+000
-7.6972055E-001	-1.288060824214309E+000
-7.6874518E-001	-1.279818870127203E+000
-7.6775301E-001	-1.271066790778815E+000
-7.6669538E-001	-1.262941854695486E+000
-7.6582968E-001	-1.254434239947138E+000
-7.6478457E-001	-1.245477159954611E+000
-7.6378924E-001	-1.237019935277878E+000
-7.6279157E-001	-1.228202376652646E+000
-7.6176125E-001	-1.219196586019324E+000
-7.6082784E-001	-1.210984907630415E+000
-7.5981200E-001	-1.203036320154312E+000
-7.5882334E-001	-1.194746650089535E+000
-7.5789291E-001	-1.186374522193709E+000
-7.5679642E-001	-1.178450185529616E+000
-7.5578672E-001	-1.170388968226515E+000
-7.5486481E-001	-1.161589410431962E+000
-7.5380582E-001	-1.151890037084778E+000
-7.5285679E-001	-1.142365954954315E+000
-7.5175029E-001	-1.132495840804449E+000
-7.5082642E-001	-1.123569874820960E+000
-7.4979943E-001	-1.114090189061782E+000
-7.4882346E-001	-1.105310673514999E+000
-7.4781686E-001	-1.096478138677519E+000
-7.4690092E-001	-1.088383325134161E+000
-7.4581301E-001	-1.079762458663297E+000
-7.4475127E-001	-1.071091176297896E+000
-7.4382573E-001	-1.062683801822086E+000
-7.4276888E-001	-1.054275628179306E+000
-7.4186856E-001	-1.045915125293874E+000
-7.4079508E-001	-1.036632769775610E+000
-7.3976898E-001	-1.027916414042311E+000
-7.3882049E-001	-1.019391170893491E+000
-7.3779279E-001	-1.011548505337155E+000
-7.3676121E-001	-1.002953788058628E+000
-7.3567432E-001	-9.941551303610332E-001
-7.3472971E-001	-9.848868751691464E-001
-7.3377383E-001	-9.762386501663265E-001
-7.3280162E-001	-9.684780686841226E-001
-7.3185670E-001	-9.602019062472724E-001
-7.3077112E-001	-9.512900414842171E-001
-7.2984737E-001	-9.425962235421341E-001
-7.2873580E-001	-9.339115234712754E-001
-7.2769850E-001	-9.253710240677560E-001
-7.2676170E-001	-9.175776359837240E-001
-7.2576350E-001	-9.093470191238122E-001
-7.2473019E-001	-9.007557164187778E-001
-7.2379994E-001	-8.925096321778754E-001
-7.2279000E-001	-8.845967597983488E-001
-7.2181225E-001	-8.763532623372711E-001
-7.2075135E-001	-8.680419138135562E-001
-7.1987486E-001	-8.602214846070169E-001
-7.1879858E-001	-8.519643536872330E-001
-7.1787864E-001	-8.439523957965278E-001
-7.1682978E-001	-8.357545981804506E-001
-7.1577948E-001	-8.277177904491069E-001
-7.1478951E-001	-8.199254541790530E-001
-7.1381032E-001	-8.119735487357360E-001
-7.1285123E-001	-8.032360999948516E-001
-7.1183723E-001	-7.953642366632518E-001
-7.1082950E-001	-7.872860731074081E-001
-7.0984477E-001	-7.794624192433233E-001
-7.0890617E-001	-7.713194256369746E-001
-7.0778739E-001	-7.633637029125708E-001
-7.0675004E-001	-7.545658891537652E-001
-7.0586109E-001	-7.463526955376825E-001
-7.0489866E-001	-7.379455996884232E-001
-7.0379704E-001	-7.297399297218625E-001
-7.0274305E-001	-7.213776107613084E-001
-7.0172578E-001	-7.131634066226287E-001
-7.0082170E-001	-7.051179544241348E-001
-6.9975525E-001	-6.966260460301772E-001
-6.9883537E-001	-6.880463525238962E-001
-6.9787550E-001	-6.794107542545690E-001
-6.9683415E-001	-6.709927730832153E-001
-6.9581407E-001	-6.625623711971198E-001
-6.9479567E-001	-6.544260846933829E-001
-6.9382638E-001	-6.460502929475638E-001
-6.9291121E-001	-6.379112530913598E-001
-6.9185084E-001	-6.295719310227383E-001
-6.9086874E-001	-6.210709386377715E-001
-6.8981868E-001	-6.129102506157409E-001
-6.8874419E-001	-6.044352128617141E-001
-6.8783450E-001	-5.961742921283948E-001
-6.8685263E-001	-5.875699589787815E-001
-6.8586451E-001	-5.795951886900053E-001
-6.8487614E-001	-5.710963737219572E-001
-6.8381441E-001	-5.629575667833819E-001
-6.8285614E-001	-5.548121927175059E-001
-6.8191308E-001	-5.466820733552735E-001
-6.8088281E-001	-5.384619785817679E-001
-6.7987907E-001	-5.303046155852855E-001
-6.7881525E-001	-5.221969317644817E-001
-6.7784983E-001	-5.138091900972279E-001
-6.7684895E-001	-5.060134458772154E-001
-6.7588997E-001	-4.975523436786968E-001
-6.7479354E-001	-4.895838347987995E-001
-6.7387259E-001	-4.813882256201065E-001
-6.7286718E-001	-4.737803918757916E-001
-6.7181224E-001	-4.657787648891953E-001
-6.7085850E-001	-4.576897243844824E-001
-6.6988820E-001	-4.492727229026725E-001
-6.6871351E-001	-4.402559922525162E-001
-6.6746265E-001	-4.312507621099222E-001
-6.6645324E-001	-4.234854665205425E-001
-6.6551590E-001	-4.152461038557478E-001
-6.6456813E-001	-4.075026085985591E-001
-6.6366637E-001	-3.997118381300453E-001
-6.6267210E-001	-3.918806498318368E-001
-6.6166121E-001	-3.841808036771530E-001
-6.6055888E-001	-3.764195964775148E-001
-6.5968221E-001	-3.683967457187425E-001
-6.5858519E-001	-3.609361634073744E-001
-6.5767652E-001	-3.528774047477374E-001
-6.5663350E-001	-3.448449289426199E-001
-6.5563327E-001	-3.369931807669810E-001
-6.5462291E-001	-3.290945019366014E-001
-6.5354741E-001	-3.211406097505924E-001
-6.5252042E-001	-3.131246663530085E-001
-6.5159947E-001	-3.053968869563617E-001
-6.5050751E-001	-2.975449613123020E-001
-6.4968544E-001	-2.899178639264282E-001
-6.4846683E-001	-2.820112796293364E-001
-6.4761698E-001	-2.743500245528092E-001
-6.4664525E-001	-2.666671857306805E-001
-6.4568621E-001	-2.587906949704983E-001
-6.4452016E-001	-2.510308088846394E-001
-6.4364111E-001	-2.430996180822449E-001
-6.4253080E-001	-2.354686945952746E-001
-6.4168930E-001	-2.272623749888443E-001
-6.4068168E-001	-2.196998090862676E-001
-6.3957757E-001	-2.118904131844087E-001
-6.3849676E-001	-2.040834952626369E-001
-6.3740242E-001	-1.960870260200291E-001
-6.3669425E-001	-1.879861971742853E-001
-6.3560981E-001	-1.801920561466817E-001
-6.3447636E-001	-1.725545118528382E-001
-6.3357842E-001	-1.647022244072072E-001
-6.3252801E-001	-1.570444551954653E-001
-6.3148236E-001	-1.488680553932986E-001
-6.3060623E-001	-1.410928489122953E-001
-6.2950110E-001	-1.330238872537979E-001
-6.2850428E-001	-1.252885915649437E-001
-6.2761909E-001	-1.173550802524445E-001
-6.2648922E-001	-1.093278644070605E-001
-6.2561744E-001	-1.018028536949445E-001
-6.2478387E-001	-9.407715234664060E-002
-6.2360889E-001	-8.616707279125313E-002
-6.2263411E-001	-7.860897464194777E-002
-6.2164181E-001	-7.092130041888167E-002
-6.2063229E-001	-6.309689054890777E-002
-6.1969745E-001	-5.567463729703004E-002
-6.1866140E-001	-4.791102561823722E-002
-6.1748117E-001	-3.890053260709692E-002
-6.1633182E-001	-3.046013593794417E-002
-6.1527419E-001	-2.255686168144973E-002
-6.1444843E-001	-1.507996978734610E-002
-6.1335206E-001	-7.332272848644674E-003
-6.1236864E-001	3.418892527214928E-004
-6.1124253E-001	7.875854006385991E-003
-6.1026227E-001	1.581396960817211E-002
-6.0915220E-001	2.367476249734557E-002
-6.0825413E-001	3.116595999209959E-002
-6.0713357E-001	3.850440328716546E-002
-6.0614038E-001	4.605593748338932E-002
-6.0526282E-001	5.397697677573532E-002
-6.0428870E-001	6.183075722031006E-002
-6.0333538E-001	6.925117882417031E-002
-6.0236961E-001	7.662133142972971E-002
-6.0134399E-001	8.449306932312484E-002
-6.0028952E-001	9.198254682461515E-002
-5.9927028E-001	9.939574786565331E-002
-5.9803164E-001	1.082180140029219E-001
-5.9685981E-001	1.168523761020084E-001
-5.9604931E-001	1.242235707877959E-001
-5.9500182E-001	1.318706614482736E-001
-5.9398639E-001	1.393327880742146E-001
-5.9304494E-001	1.469162570105668E-001
-5.9191000E-001	1.548940718208471E-001
-5.9080189E-001	1.623123022218884E-001
-5.8995295E-001	1.695881058910373E-001
-5.8913791E-001	1.772057951634967E-001
-5.8798474E-001	1.847630054565945E-001
-5.8694369E-001	1.922253468418833E-001
-5.8593273E-001	1.999779050755833E-001
-5.8474684E-001	2.074644071050313E-001
-5.8396733E-001	2.146869125534538E-001
-5.8282626E-001	2.224941775892617E-001
-5.8199841E-001	2.298265260909917E-001
-5.8105266E-001	2.371734906746843E-001
-5.7992274E-001	2.446128649430142E-001
-5.7897651E-001	2.520926283597719E-001
-5.7813221E-001	2.591698837501037E-001
-5.7694936E-001	2.668288093474178E-001
-5.7592201E-001	2.742131117702247E-001
-5.7479435E-001	2.818414360560748E-001
-5.7377845E-001	2.894673324362556E-001
-5.7294053E-001	2.966726347428903E-001
-5.7203859E-001	3.042128762851153E-001
-5.7090139E-001	3.115006653523003E-001
-5.6995952E-001	3.189173685290294E-001
-5.6922066E-001	3.264104508346435E-001
-5.6807369E-001	3.337146116558594E-001
-5.6678605E-001	3.408578976013965E-001
-5.6595433E-001	3.481659385617117E-001
-5.6495458E-001	3.555451362497279E-001
-5.6393135E-001	3.637419458154501E-001
-5.6296420E-001	3.711255815707986E-001
-5.6203508E-001	3.778905473925445E-001
-5.6095618E-001	3.852770721071934E-001
-5.5991989E-001	3.927714831575205E-001
-5.5901074E-001	4.001562195243658E-001
-5.5783409E-001	4.069288505658193E-001
-5.5706149E-001	4.142893041587543E-001
-5.5584091E-001	4.217736538913526E-001
-5.5504817E-001	4.294851066097731E-001
-5.5394876E-001	4.361006966619581E-001
-5.5290341E-001	4.434525990099834E-001
-5.5198026E-001	4.512221169884447E-001
-5.5086553E-001	4.581799514729673E-001
-5.5009079E-001	4.653372619757885E-001
-5.4893643E-001	4.727075526973685E-001
-5.4799199E-001	4.803593476061461E-001
-5.4696530E-001	4.872499002956419E-001
-5.4585063E-001	4.947141915283835E-001
-5.4470873E-001	5.020676838854947E-001
-5.4392076E-001	5.094668896931516E-001
-5.4279339E-001	5.163800891626771E-001
-5.4202211E-001	5.235474510463281E-001
-5.4087722E-001	5.302205198398111E-001
-5.3982723E-001	5.373917341370298E-001
-5.3890979E-001	5.447501094528935E-001
-5.3793263E-001	5.520666402634955E-001
-5.3699028E-001	5.592194325118163E-001
-5.3577113E-001	5.664524324928166E-001
-5.3488326E-001	5.738356027011795E-001
-5.3419226E-001	5.808641469037106E-001
-5.3296006E-001	5.879268464804799E-001
-5.3181416E-001	5.950468763348828E-001
-5.3089732E-001	6.022727328732049E-001
-5.3000110E-001	6.093170776687282E-001
-5.2879393E-001	6.159662625804030E-001
-5.2803826E-001	6.236178874969507E-001
-5.2701777E-001	6.305642671607141E-001
-5.2608526E-001	6.377306629169164E-001
-5.2500004E-001	6.451069802321792E-001
-5.2387780E-001	6.523800943460696E-001
-5.2294070E-001	6.590418981049773E-001
-5.2182037E-001	6.661974381379530E-001
-5.2095890E-001	6.735295242181518E-001
-5.1991349E-001	6.804603890967602E-001
-5.1894331E-001	6.875334425518917E-001
-5.1793951E-001	6.949679494869905E-001
-5.1683617E-001	7.018809816667924E-001
-5.1598620E-001	7.087906327926454E-001
-5.1493466E-001	7.153804644390362E-001
-5.1402414E-001	7.228336023554327E-001
-5.1302892E-001	7.300038047272892E-001
-5.1196158E-001	7.368276637323463E-001
-5.1090091E-001	7.433461276440703E-001
-5.0988549E-001	7.505970003290301E-001
-5.0892794E-001	7.575580653631011E-001
-5.0790244E-001	7.640975373559797E-001
-5.0703406E-001	7.710367135565583E-001
-5.0588322E-001	7.776744676822851E-001
-5.0508726E-001	7.848574006116822E-001
-5.0397325E-001	7.930608658051099E-001
-5.0286132E-001	7.987377905735258E-001
-5.0188124E-001	8.053631385030364E-001
-5.0081360E-001	8.123363372352399E-001
-4.9996236E-001	8.186531291791699E-001
-4.9890766E-001	8.254447402559730E-001
-4.9795625E-001	8.325708257379354E-001
-4.9685529E-001	8.393116830675709E-001
-4.9604142E-001	8.464113747274951E-001
-4.9481821E-001	8.525770714989420E-001
-4.9388662E-001	8.591638938696313E-001
-4.9286324E-001	8.661757664764007E-001
-4.9192184E-001	8.737964523887234E-001
-4.9097976E-001	8.802979874114172E-001
-4.8970786E-001	8.869741460527383E-001
-4.8906282E-001	8.930450962097574E-001
-4.8788664E-001	9.004276218540586E-001
-4.8673400E-001	9.068958948331911E-001
-4.8590338E-001	9.139861798396822E-001
-4.8492712E-001	9.204473826734940E-001
-4.8400587E-001	9.267778380049589E-001
-4.8308760E-001	9.336637508262147E-001
-4.8193285E-001	9.402417274091164E-001
-4.8088467E-001	9.471667015718079E-001
-4.7999224E-001	9.529132430476146E-001
-4.7896308E-001	9.590550541525662E-001
-4.7793499E-001	9.667664393782580E-001
-4.7690958E-001	9.741654993483337E-001
-4.7596198E-001	9.806608308032967E-001
-4.7495356E-001	9.872429272918772E-001
-4.7371900E-001	9.932157659420255E-001
-4.7289896E-001	9.999026953741108E-001
-4.7195131E-001	1.006116648101147E+000
-4.7082281E-001	1.012444015592336E+000
-4.6993610E-001	1.018986329171284E+000
-4.6897137E-001	1.025010716997913E+000
-4.6796566E-001	1.032249307742823E+000
-4.6694121E-001	1.039030301864194E+000
-4.6595111E-001	1.045170811453348E+000
-4.6482638E-001	1.051744348197077E+000
-4.6392360E-001	1.058714467670544E+000
-4.6287224E-001	1.064989330454007E+000
-4.6186745E-001	1.071242343496393E+000
-4.6081913E-001	1.077776927922901E+000
-4.5999712E-001	1.084785827608020E+000
-4.5889619E-001	1.090618266413616E+000
-4.5768726E-001	1.098616235527093E+000
-4.5661768E-001	1.106436870854211E+000
-4.5574799E-001	1.112904539400784E+000
-4.5463172E-001	1.119640232761580E+000
-4.5369482E-001	1.125270732574995E+000
-4.5264098E-001	1.132410010943808E+000
-4.5172635E-001	1.139262179497567E+000
-4.5064884E-001	1.145435323731770E+000
-4.4974643E-001	1.152863357492064E+000
-4.4862074E-001	1.158890397124434E+000
-4.4764492E-001	1.164922830269294E+000
-4.4667378E-001	1.171594648863433E+000
-4.4575059E-001	1.178318048930832E+000
-4.4473624E-001	1.184478309971322E+000
-4.4372690E-001	1.191181087935414E+000
-4.4269258E-001	1.197210463258816E+000
-4.4164512E-001	1.203630241392943E+000
-4.4068611E-001	1.209651749434038E+000
-4.3972576E-001	1.216555368017270E+000
-4.3880132E-001	1.222951998175295E+000
-4.3770400E-001	1.229267806060287E+000
-4.3669218E-001	1.236133234644376E+000
-4.3575221E-001	1.242148757808739E+000
-4.3470299E-001	1.247781123501234E+000
-4.3371260E-001	1.254493379758461E+000
-4.3273598E-001	1.261191510077980E+000
-4.3169582E-001	1.268517845187227E+000
-4.3069977E-001	1.274007231686955E+000
-4.2961708E-001	1.280732542966252E+000
-4.2880964E-001	1.286803938640332E+000
-4.2766443E-001	1.293322544406962E+000
-4.2672959E-001	1.299397616336741E+000
-4.2573363E-001	1.305732451016400E+000
-4.2472261E-001	1.312456512340795E+000
-4.2369807E-001	1.318564509214072E+000
-4.2270917E-001	1.324452546636769E+000
-4.2174563E-001	1.330848826164452E+000
-4.2072678E-001	1.336909854025748E+000
-4.1964033E-001	1.343012252374905E+000
-4.1865242E-001	1.349413382234398E+000
-4.1757816E-001	1.355331676839679E+000
-4.1673890E-001	1.361701410177318E+000
-4.1563171E-001	1.367502194173909E+000
-4.1468307E-001	1.374238014635112E+000
-4.1362467E-001	1.380595582844004E+000
-4.1273215E-001	1.386617759035694E+000
-4.1170818E-001	1.392688153794516E+000
-4.1067377E-001	1.398763763076713E+000
-4.0975240E-001	1.404074640737642E+000
-4.0871570E-001	1.410189465792087E+000
-4.0765086E-001	1.416570172701514E+000
-4.0668732E-001	1.422901975611851E+000
-4.0565071E-001	1.429412153170066E+000
-4.0478396E-001	1.435513540925648E+000
-4.0376765E-001	1.441422623340731E+000
-4.0267411E-001	1.447394898368245E+000
-4.0170422E-001	1.453815651490995E+000
-4.0072888E-001	1.460282520149590E+000
-3.9972684E-001	1.466708127409213E+000
-3.9867935E-001	1.473360924999726E+000
-3.9773259E-001	1.478981917241107E+000
-3.9681345E-001	1.484658518737117E+000
-3.9563510E-001	1.490783166271981E+000
-3.9474267E-001	1.496953674764544E+000
-3.9370772E-001	1.502734816322725E+000
-3.9267120E-001	1.508836628472789E+000
-3.9171416E-001	1.514909939495499E+000
-3.9075106E-001	1.520363291932473E+000
-3.8969651E-001	1.526688493972703E+000
-3.8877064E-001	1.532934042314688E+000
-3.8777468E-001	1.538593966375906E+000
-3.8675049E-001	1.544409297503591E+000
-3.8579854E-001	1.549882489222071E+000
-3.8469672E-001	1.555364530947475E+000
-3.8370275E-001	1.561310700420734E+000
-3.8263866E-001	1.566946445239921E+000
-3.8167667E-001	1.572964032491040E+000
-3.8083681E-001	1.578692926317889E+000
-3.7972298E-001	1.584387321163108E+000
-3.7880108E-001	1.590139432637788E+000
-3.7763077E-001	1.596076115413952E+000
-3.7659246E-001	1.601779107418326E+000
-3.7572545E-001	1.607725906151309E+000
-3.7476793E-001	1.613513324655678E+000
-3.7376812E-001	1.619350863827592E+000
-3.7265831E-001	1.625255703129347E+000
-3.7173173E-001	1.630672773829211E+000
-3.7077186E-001	1.636850683501475E+000
-3.6971620E-001	1.642147844852641E+000
-3.6875749E-001	1.648146275844839E+000
-3.6767352E-001	1.654524006777336E+000
-3.6668739E-001	1.660766174000031E+000
-3.6566931E-001	1.666220595991174E+000
-3.6469314E-001	1.672054420190829E+000
-3.6381125E-001	1.678351928178131E+000
-3.6273855E-001	1.683885974464587E+000
-3.6174071E-001	1.689703622074045E+000
-3.6066732E-001	1.695577259678379E+000
-3.5973993E-001	1.702227796669359E+000
-3.5876116E-001	1.707306488796521E+000
-3.5774690E-001	1.713648364742202E+000
-3.5666028E-001	1.719484589993959E+000
-3.5575280E-001	1.724721801501737E+000
-3.5473743E-001	1.729511760899342E+000
-3.5377091E-001	1.735694446221537E+000
-3.5274354E-001	1.741096384271431E+000
-3.5174757E-001	1.747208702000915E+000
-3.5067555E-001	1.752356851542437E+000
-3.4970441E-001	1.758177366245686E+000
-3.4879032E-001	1.764352871033953E+000
-3.4775707E-001	1.770116677162827E+000
-3.4671023E-001	1.775571247493778E+000
-3.4573781E-001	1.781200349183486E+000
-3.4463900E-001	1.785919507620513E+000
-3.4377527E-001	1.790955165746041E+000
-3.4267023E-001	1.795884762789598E+000
-3.4170783E-001	1.801487154706763E+000
-3.4074455E-001	1.807105374556997E+000
-3.3972371E-001	1.812828578429347E+000
-3.3873740E-001	1.818056864870904E+000
-3.3773786E-001	1.823063751889601E+000
-3.3664081E-001	1.828356861476576E+000
-3.3572838E-001	1.833504040484080E+000
-3.3472037E-001	1.839392785948736E+000
-3.3376586E-001	1.844873552213001E+000
-3.3264852E-001	1.850804743391503E+000
-3.3181125E-001	1.856953645745920E+000
-3.3081931E-001	1.862169437228019E+000
-3.2969317E-001	1.867423729488152E+000
-3.2866520E-001	1.873136657531616E+000
-3.2773814E-001	1.878688032588592E+000
-3.2679293E-001	1.884071945868154E+000
-3.2572401E-001	1.888695756042448E+000
-3.2480562E-001	1.895275718463387E+000
-3.2378182E-001	1.900447205812842E+000
-3.2269126E-001	1.906109171609081E+000
-3.2178527E-001	1.911086279312929E+000
-3.2085338E-001	1.915480327551009E+000
-3.1971321E-001	1.922053122410070E+000
-3.1885734E-001	1.926634350094574E+000
-3.1775677E-001	1.932753422745950E+000
-3.1676739E-001	1.937682674990761E+000
-3.1570923E-001	1.942835440361934E+000
-3.1472823E-001	1.948491972629661E+000
-3.1378466E-001	1.953423834509318E+000
-3.1269923E-001	1.959374378832742E+000
-3.1174082E-001	1.964224252435898E+000
-3.1080574E-001	1.968213732319857E+000
-3.0981639E-001	1.973548351890514E+000
-3.0873477E-001	1.978963136121079E+000
-3.0782244E-001	1.984231398471046E+000
-3.0671337E-001	1.989784258107347E+000
-3.0581039E-001	1.994361182605781E+000
-3.0473617E-001	1.999785478183583E+000
-3.0387491E-001	2.004751748232934E+000
-3.0279225E-001	2.009098744502776E+000
-3.0179507E-001	2.014125875627727E+000
-3.0075157E-001	2.018545385864046E+000
-2.9976156E-001	2.023699235033099E+000
-2.9883328E-001	2.028474384405545E+000
-2.9772452E-001	2.032872251338425E+000
-2.9662314E-001	2.038053100031824E+000
-2.9575604E-001	2.042818013370276E+000
-2.9467964E-001	2.048373533343835E+000
-2.9378170E-001	2.052777067930608E+000
-2.9275694E-001	2.057650604319537E+000
-2.9179451E-001	2.062655180692675E+000
-2.9077840E-001	2.066778861538126E+000
-2.8967968E-001	2.071064258661346E+000
-2.8877145E-001	2.075693412235502E+000
-2.8762150E-001	2.079581911089242E+000
-2.8688693E-001	2.083608166510265E+000
-2.8583285E-001	2.088554666550078E+000
-2.8488913E-001	2.092733662989406E+000
-2.8383344E-001	2.097463783057208E+000
-2.8279135E-001	2.102236532502706E+000
-2.8170463E-001	2.106117531933162E+000
-2.8079435E-001	2.110496775696721E+000
-2.7985826E-001	2.115039661526680E+000
-2.7879998E-001	2.119042128048559E+000
-2.7776304E-001	2.123480596665797E+000
-2.7676526E-001	2.128886881801819E+000
-2.7577123E-001	2.133077781233524E+000
-2.7473459E-001	2.137456885018005E+000
-2.7372760E-001	2.141691477210436E+000
-2.7273867E-001	2.145875670015807E+000
-2.7177742E-001	2.150491759415747E+000
-2.7079004E-001	2.155132273832955E+000
-2.6977354E-001	2.160368860043853E+000
-2.6869226E-001	2.164344075199410E+000
-2.6777127E-001	2.169815546936465E+000
-2.6679784E-001	2.174742955024600E+000
-2.6579383E-001	2.179124613546684E+000
-2.6483881E-001	2.184216245732934E+000
-2.6363498E-001	2.189295488927105E+000
-2.6276898E-001	2.193833848941585E+000
-2.6172668E-001	2.198204707216327E+000
-2.6072204E-001	2.202008794027343E+000
-2.5981283E-001	2.207328301968879E+000
-2.5875840E-001	2.212011755340630E+000
-2.5784028E-001	2.216159097022468E+000
-2.5677601E-001	2.220674779778973E+000
-2.5583401E-001	2.224497335928461E+000
-2.5482151E-001	2.228887030371897E+000
-2.5379044E-001	2.232207714270878E+000
-2.5282070E-001	2.236252073060590E+000
-2.5171703E-001	2.240844423296274E+000
-2.5076625E-001	2.245787664180639E+000
-2.4975380E-001	2.250007083018609E+000
-2.4871966E-001	2.254655313160686E+000
-2.4779119E-001	2.258977139329659E+000
-2.4672358E-001	2.263741498192156E+000
-2.4570067E-001	2.267229863614965E+000
-2.4479829E-001	2.271762806652248E+000
-2.4384032E-001	2.275539216344004E+000
-2.4288382E-001	2.279988356670280E+000
-2.4174277E-001	2.283003983674220E+000
-2.4075493E-001	2.286098520788872E+000
-2.3985063E-001	2.290589866439039E+000
-2.3881100E-001	2.294556927073884E+000
-2.3778641E-001	2.299124688737916E+000
-2.3685944E-001	2.303001439833338E+000
-2.3580408E-001	2.306600352956190E+000
-2.3484799E-001	2.311014938409684E+000
-2.3383468E-001	2.315620579388451E+000
-2.3281989E-001	2.319187960414986E+000
-2.3186213E-001	2.324456673529410E+000
-2.3086320E-001	2.328614264624674E+000
-2.2986855E-001	2.332816586450292E+000
-2.2885753E-001	2.336895953173996E+000
-2.2780365E-001	2.341381575751232E+000
-2.2679415E-001	2.345826148434922E+000
-2.2585489E-001	2.350305138914678E+000
-2.2477141E-001	2.354799197225034E+000
-2.2375250E-001	2.358942470064875E+000
-2.2281890E-001	2.363687270217477E+000
-2.2177303E-001	2.368525087481817E+000
-2.2073710E-001	2.372127520817308E+000
-2.1976128E-001	2.377026623597857E+000
-2.1873552E-001	2.381532429761889E+000
-2.1785450E-001	2.385725491300772E+000
-2.1676947E-001	2.389907667758294E+000
-2.1575090E-001	2.393989992093235E+000
-2.1474470E-001	2.397839847814161E+000
-2.1376936E-001	2.401301830179161E+000
-2.1273659E-001	2.405361715556417E+000
-2.1178488E-001	2.409996578814813E+000
-2.1076562E-001	2.413844589833869E+000
-2.0979407E-001	2.417870739549381E+000
-2.0886219E-001	2.422388577902758E+000
-2.0787154E-001	2.426377588124190E+000
-2.0685679E-001	2.430375746887954E+000
-2.0577659E-001	2.434588012871924E+000
-2.0472550E-001	2.438392869576257E+000
-2.0382454E-001	2.442699189464063E+000
-2.0275103E-001	2.446598096578207E+000
-2.0177226E-001	2.450614478853019E+000
-2.0084788E-001	2.454548633851619E+000
-1.9976747E-001	2.458550641658125E+000
-1.9886272E-001	2.462948149277111E+000
-1.9772060E-001	2.467008605361810E+000
-1.9684665E-001	2.471021173176952E+000
-1.9579388E-001	2.475235897081863E+000
-1.9470969E-001	2.479192678787495E+000
-1.9389279E-001	2.482626409994227E+000
-1.9277932E-001	2.486783302768515E+000
-1.9190359E-001	2.491193081009659E+000
-1.9088693E-001	2.495666075083957E+000
-1.8981846E-001	2.500524563921836E+000
-1.8877134E-001	2.504669616075276E+000
-1.8783996E-001	2.508437086862557E+000
-1.8677421E-001	2.511882272859406E+000
-1.8580043E-001	2.516655045495632E+000
-1.8485701E-001	2.520550889825373E+000
-1.8385577E-001	2.524292194181029E+000
-1.8274887E-001	2.528159822470805E+000
-1.8189444E-001	2.532475054815961E+000
-1.8087029E-001	2.536281835701725E+000
-1.7982344E-001	2.540871116934090E+000
-1.7876683E-001	2.545613262664391E+000
-1.7774734E-001	2.549346047324228E+000
-1.7684051E-001	2.553883809458330E+000
-1.7580278E-001	2.557839468673428E+000
-1.7471835E-001	2.561681020401643E+000
-1.7380518E-001	2.565802534145341E+000
-1.7281707E-001	2.570450947240545E+000
-1.7178833E-001	2.574613767564507E+000
-1.7081627E-001	2.578795976384924E+000
-1.6973507E-001	2.582347667327639E+000
-1.6883989E-001	2.587226567424658E+000
-1.6784735E-001	2.591346208971959E+000
-1.6668808E-001	2.594985948392631E+000
-1.6575193E-001	2.598966573719725E+000
-1.6482815E-001	2.602217856104726E+000
-1.6380101E-001	2.606526304450284E+000
-1.6273075E-001	2.611083196699937E+000
-1.6175930E-001	2.615293779858845E+000
-1.6078585E-001	2.618102762158275E+000
-1.5986384E-001	2.622837261035475E+000
-1.5872672E-001	2.627806209579671E+000
-1.5777706E-001	2.632601712864854E+000
-1.5681033E-001	2.636688413830676E+000
-1.5577836E-001	2.641524620354183E+000
-1.5475103E-001	2.645644951473798E+000
-1.5390535E-001	2.649787427254075E+000
-1.5277402E-001	2.653775903913713E+000
-1.5184468E-001	2.658388064139416E+000
-1.5074407E-001	2.662207818299018E+000
-1.4968903E-001	2.665983944303454E+000
-1.4883099E-001	2.669382600596670E+000
-1.4777255E-001	2.673066323828493E+000
-1.4683741E-001	2.677562019615261E+000
-1.4586291E-001	2.683019172814166E+000
-1.4483032E-001	2.685381917764220E+000
-1.4384875E-001	2.689822401989382E+000
-1.4274167E-001	2.693328837553667E+000
-1.4180361E-001	2.697904591059704E+000
-1.4083038E-001	2.701459236443043E+000
-1.3986395E-001	2.705419114066498E+000
-1.3868578E-001	2.708660140276221E+000
-1.3778000E-001	2.713105757479326E+000
-1.3677068E-001	2.717013184946993E+000
-1.3583329E-001	2.720272750915825E+000
-1.3477671E-001	2.724224550856485E+000
-1.3383995E-001	2.728459907626672E+000
-1.3276806E-001	2.733047895943216E+000
-1.3175432E-001	2.737071532894051E+000
-1.3078766E-001	2.741169013082995E+000
-1.2977436E-001	2.744360939269962E+000
-1.2878494E-001	2.747495373366057E+000
-1.2776569E-001	2.751432004902107E+000
-1.2684786E-001	2.755108874918019E+000
-1.2583086E-001	2.759855740600168E+000
-1.2480417E-001	2.763226447557955E+000
-1.2377001E-001	2.765926642500986E+000
-1.2281143E-001	2.770206959159289E+000
-1.2185134E-001	2.773362167179587E+000
-1.2076975E-001	2.777382110572804E+000
-1.1989977E-001	2.781433014406097E+000
-1.1886587E-001	2.784454768454577E+000
-1.1775898E-001	2.787559431952069E+000
-1.1677409E-001	2.790464372270643E+000
-1.1578387E-001	2.794307872653008E+000
-1.1486068E-001	2.796594053230905E+000
-1.1378266E-001	2.799935778258018E+000
-1.1272613E-001	2.802491431260365E+000
-1.1182324E-001	2.806119962146990E+000
-1.1081032E-001	2.808720617106680E+000
-1.0989735E-001	2.810712174920646E+000
-1.0886046E-001	2.814606162133035E+000
-1.0785496E-001	2.817436127199059E+000
-1.0683586E-001	2.820413384258906E+000
-1.0583127E-001	2.823821398671036E+000
-1.0485208E-001	2.827081568815089E+000
-1.0373755E-001	2.831056712048401E+000
-1.0279234E-001	2.834107091857327E+000
-1.0181528E-001	2.837410148371141E+000
-1.0078102E-001	2.840919843979137E+000
-9.9809818E-002	2.844155846922490E+000
-9.8832987E-002	2.848719730145405E+000
-9.7891122E-002	2.850982743807933E+000
-9.6813090E-002	2.855484693414642E+000
-9.5835820E-002	2.858722095412261E+000
-9.4846852E-002	2.860921791313508E+000
-9.3837805E-002	2.864825091152284E+000
-9.2832103E-002	2.868946248458485E+000
-9.1854185E-002	2.871369510509091E+000
-9.0870984E-002	2.875122157235950E+000
-8.9830078E-002	2.877919559125537E+000
-8.8894181E-002	2.881939049207134E+000
-8.7797895E-002	2.884471194611665E+000
-8.6780325E-002	2.888418223570900E+000
-8.5892655E-002	2.891247907251781E+000
-8.4855042E-002	2.895104760373073E+000
-8.3867386E-002	2.896744361906151E+000
-8.2835868E-002	2.902201080443177E+000
-8.1839442E-002	2.905638606184056E+000
-8.0764376E-002	2.909334333130602E+000
-7.9796873E-002	2.913410748721859E+000
-7.8751728E-002	2.916443941217864E+000
-7.7807330E-002	2.920174562544730E+000
-7.6808259E-002	2.923252715559542E+000
-7.5788096E-002	2.927211231655541E+000
-7.4845828E-002	2.930277529690002E+000
-7.3841088E-002	2.934329958398537E+000
-7.2872184E-002	2.936270211581833E+000
-7.1845710E-002	2.940542243145124E+000
-7.0870034E-002	2.945203422402955E+000
-6.9909401E-002	2.948134496256152E+000
-6.8755642E-002	2.951602133887782E+000
-6.7821406E-002	2.954945490630948E+000
-6.6813402E-002	2.959072620228486E+000
-6.5743431E-002	2.962981766020810E+000
-6.4851649E-002	2.967902640979263E+000
-6.3786767E-002	2.972019297105291E+000
-6.2838979E-002	2.973945727226933E+000
-6.1790656E-002	2.977092129351945E+000
-6.0858566E-002	2.980237897623461E+000
-5.9865601E-002	2.983556851192759E+000
-5.8762219E-002	2.986959028082318E+000
-5.7804987E-002	2.990969969166642E+000
-5.6803536E-002	2.994171089044322E+000
-5.5863392E-002	2.997654323388403E+000
-5.4797448E-002	3.001067509529761E+000
-5.3806175E-002	3.005067011548419E+000
-5.2900653E-002	3.007956322971914E+000
-5.1829357E-002	3.012187127713794E+000
-5.0882209E-002	3.015924357429697E+000
-4.9804818E-002	3.020006264693393E+000
-4.8890755E-002	3.022549831204941E+000
-4.7806360E-002	3.026344632936841E+000
-4.6857081E-002	3.030880067299535E+000
-4.5756362E-002	3.033855761918765E+000
-4.4896554E-002	3.036909482321519E+000
-4.3795247E-002	3.039711797402958E+000
-4.2753905E-002	3.042897938026326E+000
-4.1867837E-002	3.046299824060604E+000
-4.0823549E-002	3.050024881131115E+000
-3.9806399E-002	3.052866577826173E+000
-3.8889110E-002	3.056471918426965E+000
-3.7849944E-002	3.059208901392086E+000
-3.6796946E-002	3.062069345403586E+000
-3.5757124E-002	3.065399276121198E+000
-3.4838803E-002	3.068334418038525E+000
-3.3883590E-002	3.071398183979369E+000
-3.2895632E-002	3.074502609220225E+000
-3.1825952E-002	3.078041536940475E+000
-3.0960049E-002	3.081324911227938E+000
-2.9784171E-002	3.084528771204532E+000
-2.8870171E-002	3.087124035590207E+000
-2.7891414E-002	3.089899704136243E+000
-2.6832510E-002	3.092094186569708E+000
-2.5842691E-002	3.096100449010187E+000
-2.4850568E-002	3.098519389828041E+000
-2.3798583E-002	3.102200865237144E+000
-2.2771079E-002	3.106293592188109E+000
-2.1823509E-002	3.110076482097305E+000
-2.0799540E-002	3.112292626224232E+000
-1.9793449E-002	3.113839339326926E+000
-1.8882997E-002	3.118655096049665E+000
-1.7774528E-002	3.122369280598233E+000
-1.6865455E-002	3.125548371010359E+000
-1.5800362E-002	3.128946677402205E+000
-1.4732985E-002	3.131878868383179E+000
-1.3844972E-002	3.135186124730993E+000
-1.2843305E-002	3.138365119695649E+000
-1.1901524E-002	3.141813868843307E+000
-1.0825126E-002	3.145619581694959E+000
-9.8266425E-003	3.148773040484514E+000
-8.7897163E-003	3.152476613723621E+000
-7.8256447E-003	3.156443280754274E+000
-6.9431947E-003	3.159991651773453E+000
-5.7995925E-003	3.164362581410415E+000
-4.8352838E-003	3.167558337251336E+000
-3.8064660E-003	3.170279124820681E+000
-2.8224892E-003	3.174045042366505E+000
-1.8680453E-003	3.176873045938976E+000
-9.0519903E-004	3.179952678857028E+000
1.8427652E-004	3.183844819543266E+000
1.1097988E-003	3.186541214033412E+000
2.2813780E-003	3.192090251379552E+000
3.1207129E-003	3.196139926571277E+000
4.1472497E-003	3.197394804822071E+000
5.1648249E-003	3.200801636885720E+000
6.1085303E-003	3.204257818938572E+000
6.8005412E-003	3.207894156376518E+000
6.8730884E-003	3.208106994628906E+000