EC-Lab ASCII FILE
Nb header lines : 63                          

Linear Sweep Voltammetry

Run on channel : 6 (SN 13765)
User : 
Electrode connection : standard
Potential control : Ewe
Ewe ctrl range : min = -2.50 V, max = 2.50 V
Ewe,I filtering : <None>
Safety Limits :
	Do not start on E overload
Channel : Floating
Acquisition started on : 07/13/2026 15:34:49.530
Technique started on : 07/13/2026 15:34:50.527
Loaded Setting File :  C:\Users\EEM-620\Desktop\Wade\20260630\LSV 1mg MoS2 1_C06.mpr
Saved on :
	File : N719_0713-d-4_C06.mpr
	Directory : C:\Users\EEM-620\Desktop\Wade\abao\20260713\
	Host : 192.109.209.200
Device : VSP-300 (SN 0025)
Address : 192.109.209.129
EC-LAB for windows v11.62 (software)
Internet server v27.00 (firmware)
Command interpretor v12.02 (firmware)
Electrode material : Au/Pd
Initial state : 
Electrolyte : NaCl (0.2M)
Comments : Fe(CN)63-/Fe(CN)64- 5.10-3 M
Cable : ULC
Reference electrode : SCE Saturated Calomel Electrode (0.241 V)
Electrode surface area : 0.001 cm2
Characteristic mass : 0.001 g
Equivalent Weight : 0.000 g/eq.
Density : 0.000 g/cm3
Volume (V) : 0.001 cm3
Cycle Definition : Charge/Discharge alternance
tR (h:m:s)          0:00:5.0000         
dER/dt (mV/h)       0.0                 
dER (mV)            0                   
dtR (s)             0.0500              
dE/dt               10.000              
dE/dt unit          mV/s                
Ei (V)              -0.800              
vs.                 Ref                 
EL (V)              0.010               
vs.                 Ref                 
record              <I>                 
dI                  0.000               
unit dI             uA                  
tI (s)              0.0000              
step percent        50                  
N                   10                  
E range min (V)     -2.500              
E range max (V)     2.500               
I Range             Auto                
I Range min         Unset               
I Range max         Unset               
I Range init        Unset               
Bandwidth           8                   

Ewe/V	<I>/mA	
-4.1907275E-001	0.000000000000000E+000
-4.1919494E-001	0.000000000000000E+000
-4.1937056E-001	0.000000000000000E+000
-4.1904220E-001	0.000000000000000E+000
-4.1901165E-001	0.000000000000000E+000
-4.1929042E-001	0.000000000000000E+000
-4.1925985E-001	0.000000000000000E+000
-4.1917586E-001	0.000000000000000E+000
-4.1904601E-001	0.000000000000000E+000
-4.1912237E-001	0.000000000000000E+000
-4.1913003E-001	0.000000000000000E+000
-4.1909948E-001	0.000000000000000E+000
-4.1906512E-001	0.000000000000000E+000
-4.1929421E-001	0.000000000000000E+000
-4.1904983E-001	0.000000000000000E+000
-4.1874820E-001	0.000000000000000E+000
-4.1904220E-001	0.000000000000000E+000
-4.1908419E-001	0.000000000000000E+000
-4.1884366E-001	0.000000000000000E+000
-4.1881692E-001	0.000000000000000E+000
-4.1906512E-001	0.000000000000000E+000
-4.1900021E-001	0.000000000000000E+000
-4.1907275E-001	0.000000000000000E+000
-4.1875201E-001	0.000000000000000E+000
-4.1885129E-001	0.000000000000000E+000
-4.1898111E-001	0.000000000000000E+000
-4.1895819E-001	0.000000000000000E+000
-4.1841981E-001	0.000000000000000E+000
-4.1924077E-001	0.000000000000000E+000
-4.1906893E-001	0.000000000000000E+000
-4.1876727E-001	0.000000000000000E+000
-4.1905364E-001	0.000000000000000E+000
-4.1898111E-001	0.000000000000000E+000
-4.1872528E-001	0.000000000000000E+000
-4.1881308E-001	0.000000000000000E+000
-4.1905746E-001	0.000000000000000E+000
-4.1868329E-001	0.000000000000000E+000
-4.1909564E-001	0.000000000000000E+000
-4.1921785E-001	0.000000000000000E+000
-4.1938585E-001	0.000000000000000E+000
-4.1912621E-001	0.000000000000000E+000
-4.1904601E-001	0.000000000000000E+000
-4.1923311E-001	0.000000000000000E+000
-4.1924840E-001	0.000000000000000E+000
-4.1914529E-001	0.000000000000000E+000
-4.1859165E-001	0.000000000000000E+000
-4.1898111E-001	0.000000000000000E+000
-4.1904601E-001	0.000000000000000E+000
-4.1910711E-001	0.000000000000000E+000
-4.1914913E-001	0.000000000000000E+000
-4.1886654E-001	0.000000000000000E+000
-4.1890475E-001	0.000000000000000E+000
-4.1926369E-001	0.000000000000000E+000
-4.1922930E-001	0.000000000000000E+000
-4.1904223E-001	0.000000000000000E+000
-4.1908804E-001	0.000000000000000E+000
-4.1909567E-001	0.000000000000000E+000
-4.1883984E-001	0.000000000000000E+000
-4.1927892E-001	0.000000000000000E+000
-4.1900784E-001	0.000000000000000E+000
-4.1911477E-001	0.000000000000000E+000
-4.2407089E-001	0.000000000000000E+000
-4.2397162E-001	0.000000000000000E+000
-7.8926772E-001	-3.136718361274063E+000
-7.8866148E-001	-3.119310598370371E+000
-7.8767693E-001	-3.096017961976713E+000
-7.8675604E-001	-3.077084905019504E+000
-7.8579521E-001	-3.060042952482419E+000
-7.8475493E-001	-3.045017627102368E+000
-7.8381747E-001	-3.030570154664701E+000
-7.8279936E-001	-3.017369033359645E+000
-7.8171617E-001	-3.004215351133439E+000
-7.8085661E-001	-2.992384823108182E+000
-7.7979571E-001	-2.980818589167185E+000
-7.7875286E-001	-2.969350954172782E+000
-7.7782655E-001	-2.958442631143100E+000
-7.7681667E-001	-2.947964858773215E+000
-7.7581787E-001	-2.937367320336683E+000
-7.7480978E-001	-2.926502087050011E+000
-7.7378255E-001	-2.915993152289978E+000
-7.7275622E-001	-2.905517490649672E+000
-7.7177227E-001	-2.895346854847885E+000
-7.7077246E-001	-2.884764597534613E+000
-7.6978928E-001	-2.875039646195049E+000
-7.6879841E-001	-2.864973224699504E+000
-7.6783043E-001	-2.855432180973303E+000
-7.6676774E-001	-2.845655950683142E+000
-7.6578140E-001	-2.835755128827358E+000
-7.6485181E-001	-2.825958166070279E+000
-7.6380348E-001	-2.815627427840674E+000
-7.6277649E-001	-2.805762492120255E+000
-7.6182598E-001	-2.795425846644832E+000
-7.6083297E-001	-2.785836547889090E+000
-7.5977808E-001	-2.775718492214331E+000
-7.5884706E-001	-2.765686455244225E+000
-7.5782841E-001	-2.755475955428885E+000
-7.5687540E-001	-2.745569433603016E+000
-7.5585884E-001	-2.735493429185119E+000
-7.5484568E-001	-2.725262093323245E+000
-7.5380725E-001	-2.715312172558427E+000
-7.5276476E-001	-2.705196337567426E+000
-7.5178319E-001	-2.695339171974737E+000
-7.5077057E-001	-2.685574033649283E+000
-7.4979258E-001	-2.675560933848219E+000
-7.4882060E-001	-2.665779353843788E+000
-7.4790144E-001	-2.656033764998556E+000
-7.4684727E-001	-2.646144332709131E+000
-7.4582189E-001	-2.636082845981463E+000
-7.4478835E-001	-2.626138881236059E+000
-7.4389237E-001	-2.616310638961966E+000
-7.4281192E-001	-2.605515889823437E+000
-7.4186075E-001	-2.596195770453868E+000
-7.4085897E-001	-2.586959089669918E+000
-7.3981464E-001	-2.576933611046388E+000
-7.3887485E-001	-2.567221868411793E+000
-7.3784417E-001	-2.557502061680506E+000
-7.3678094E-001	-2.547698946186767E+000
-7.3585075E-001	-2.538423980136777E+000
-7.3489594E-001	-2.528732600587389E+000
-7.3384875E-001	-2.518987630804379E+000
-7.3283082E-001	-2.509463807712786E+000
-7.3188609E-001	-2.499787149881865E+000
-7.3079574E-001	-2.489772871412626E+000
-7.2982508E-001	-2.480289407309890E+000
-7.2887886E-001	-2.470586563150084E+000
-7.2777039E-001	-2.460579675380828E+000
-7.2676915E-001	-2.450925103796499E+000
-7.2581863E-001	-2.441428849542586E+000
-7.2483057E-001	-2.432041610832552E+000
-7.2386426E-001	-2.422464111359995E+000
-7.2281766E-001	-2.412976495645672E+000
-7.2179270E-001	-2.403532234330974E+000
-7.2079676E-001	-2.393912774653984E+000
-7.1986169E-001	-2.384542248315283E+000
-7.1889138E-001	-2.375090669150715E+000
-7.1787006E-001	-2.365437523034148E+000
-7.1684283E-001	-2.355647112484334E+000
-7.1583122E-001	-2.346432150238087E+000
-7.1480113E-001	-2.337084357520169E+000
-7.1379799E-001	-2.327536279128651E+000
-7.1284026E-001	-2.317615043785845E+000
-7.1181870E-001	-2.308414886214774E+000
-7.1091461E-001	-2.299325031538803E+000
-7.0984149E-001	-2.290016857010347E+000
-7.0885032E-001	-2.280361347749142E+000
-7.0779586E-001	-2.271352564571078E+000
-7.0685512E-001	-2.261902363487977E+000
-7.0588350E-001	-2.252069900228815E+000
-7.0472980E-001	-2.242503863517882E+000
-7.0380515E-001	-2.232810453684234E+000
-7.0283121E-001	-2.223875120503429E+000
-7.0187408E-001	-2.214445847052110E+000
-7.0084214E-001	-2.205443417032559E+000
-6.9981831E-001	-2.195932387842951E+000
-6.9885433E-001	-2.186583813969722E+000
-6.9787657E-001	-2.177742265164852E+000
-6.9690925E-001	-2.168145198632942E+000
-6.9590783E-001	-2.159301199018948E+000
-6.9487053E-001	-2.149984317521245E+000
-6.9389087E-001	-2.140746836453060E+000
-6.9281471E-001	-2.131463016900753E+000
-6.9183880E-001	-2.122063423748367E+000
-6.9081187E-001	-2.112967280674001E+000
-6.8983376E-001	-2.103784093426333E+000
-6.8885857E-001	-2.094675091478100E+000
-6.8774116E-001	-2.085344391012640E+000
-6.8686122E-001	-2.076429795611787E+000
-6.8581069E-001	-2.067201218828394E+000
-6.8482244E-001	-2.058042094663332E+000
-6.8388289E-001	-2.048851462425995E+000
-6.8287098E-001	-2.039611753014874E+000
-6.8185228E-001	-2.030702568590643E+000
-6.8081117E-001	-2.021672992518649E+000
-6.7980385E-001	-2.012252488315042E+000
-6.7883515E-001	-2.003725695113332E+000
-6.7786449E-001	-1.994441072422042E+000
-6.7680371E-001	-1.985500771138319E+000
-6.7589867E-001	-1.976665181418262E+000
-6.7478311E-001	-1.967519072470846E+000
-6.7384654E-001	-1.958664189528128E+000
-6.7283255E-001	-1.949526079826883E+000
-6.7185766E-001	-1.941063087847496E+000
-6.7080402E-001	-1.931715061283086E+000
-6.6985691E-001	-1.922688506819579E+000
-6.6881680E-001	-1.913650247233882E+000
-6.6782844E-001	-1.905102406486513E+000
-6.6686100E-001	-1.896373374870516E+000
-6.6588497E-001	-1.887517402569447E+000
-6.6484118E-001	-1.878790633460930E+000
-6.6382587E-001	-1.869679696306040E+000
-6.6286451E-001	-1.860980567004944E+000
-6.6184932E-001	-1.852012606322701E+000
-6.6084039E-001	-1.842987463706073E+000
-6.5987951E-001	-1.834643855690948E+000
-6.5884447E-001	-1.825573386907223E+000
-6.5792102E-001	-1.816867094348973E+000
-6.5682232E-001	-1.808098004372027E+000
-6.5588808E-001	-1.799593400676809E+000
-6.5482759E-001	-1.790223888500972E+000
-6.5377271E-001	-1.781628464107154E+000
-6.5285707E-001	-1.773189226008071E+000
-6.5186697E-001	-1.764258812147155E+000
-6.5085804E-001	-1.755705885313173E+000
-6.4987570E-001	-1.746870474664490E+000
-6.4880532E-001	-1.738590554506693E+000
-6.4786839E-001	-1.729859057951849E+000
-6.4689237E-001	-1.721610468871418E+000
-6.4589405E-001	-1.712863336282742E+000
-6.4489478E-001	-1.704295333060955E+000
-6.4384580E-001	-1.695396238877549E+000
-6.4293283E-001	-1.686817509432636E+000
-6.4185536E-001	-1.677903225576436E+000
-6.4086825E-001	-1.669193792783375E+000
-6.3990337E-001	-1.661348949979848E+000
-6.3893932E-001	-1.652792168712182E+000
-6.3780832E-001	-1.643955405277154E+000
-6.3681632E-001	-1.635592781835125E+000
-6.3581830E-001	-1.627109010462402E+000
-6.3490582E-001	-1.618754485185024E+000
-6.3385612E-001	-1.610292355219517E+000
-6.3291043E-001	-1.601845919809961E+000
-6.3186264E-001	-1.593387795037749E+000
-6.3080573E-001	-1.584957090792830E+000
-6.2990695E-001	-1.576415252078469E+000
-6.2895513E-001	-1.568005128843101E+000
-6.2793481E-001	-1.559235941756655E+000
-6.2690765E-001	-1.551388853540023E+000
-6.2587625E-001	-1.542683739611061E+000
-6.2483370E-001	-1.534386363018434E+000
-6.2386400E-001	-1.525860040913379E+000
-6.2295210E-001	-1.517355277720434E+000
-6.2184560E-001	-1.509357517516168E+000
-6.2086785E-001	-1.500932373680037E+000
-6.1987013E-001	-1.492382820281712E+000
-6.1886358E-001	-1.484358618794772E+000
-6.1792880E-001	-1.475738825109531E+000
-6.1687511E-001	-1.467895630609107E+000
-6.1581212E-001	-1.459495856944056E+000
-6.1489254E-001	-1.451387676555665E+000
-6.1394286E-001	-1.443229056894776E+000
-6.1282480E-001	-1.435004962263285E+000
-6.1190116E-001	-1.426348575573982E+000
-6.1091471E-001	-1.418130352679235E+000
-6.0989547E-001	-1.409966248191067E+000
-6.0895759E-001	-1.401771848358109E+000
-6.0788620E-001	-1.393654187382371E+000
-6.0690552E-001	-1.385715279590197E+000
-6.0590720E-001	-1.377590982644616E+000
-6.0493380E-001	-1.369329479971421E+000
-6.0390240E-001	-1.361801226381900E+000
-6.0293370E-001	-1.353329574850704E+000
-6.0188681E-001	-1.344713462171730E+000
-6.0095572E-001	-1.336861651528768E+000
-5.9989679E-001	-1.328269583633361E+000
-5.9889537E-001	-1.320509067426123E+000
-5.9785914E-001	-1.312494290509711E+000
-5.9687585E-001	-1.304586440636943E+000
-5.9584880E-001	-1.296274756391837E+000
-5.9496993E-001	-1.288790377339833E+000
-5.9394294E-001	-1.281248326416960E+000
-5.9285438E-001	-1.272570524364706E+000
-5.9196180E-001	-1.264712318364117E+000
-5.9086949E-001	-1.256730442226560E+000
-5.8989185E-001	-1.248607650675153E+000
-5.8890671E-001	-1.240885632319580E+000
-5.8786809E-001	-1.232651960251283E+000
-5.8690172E-001	-1.224922903433994E+000
-5.8592057E-001	-1.216817733176322E+000
-5.8490366E-001	-1.209033340859712E+000
-5.8388823E-001	-1.201198106148726E+000
-5.8291078E-001	-1.192890640348196E+000
-5.8186972E-001	-1.185068686305367E+000
-5.8082151E-001	-1.176889909362356E+000
-5.7997036E-001	-1.169087392726430E+000
-5.7895792E-001	-1.161589276320560E+000
-5.7785445E-001	-1.153980496167028E+000
-5.7689500E-001	-1.145775434733538E+000
-5.7592094E-001	-1.137838749013538E+000
-5.7491773E-001	-1.129914046575629E+000
-5.7386225E-001	-1.122724298387770E+000
-5.7292587E-001	-1.114728469958209E+000
-5.7181090E-001	-1.107195482899743E+000
-5.7085341E-001	-1.099390490187536E+000
-5.6988001E-001	-1.091731155996012E+000
-5.6882972E-001	-1.083450670181596E+000
-5.6789041E-001	-1.076300031333059E+000
-5.6691462E-001	-1.067815684594713E+000
-5.6594688E-001	-1.060642972312593E+000
-5.6487358E-001	-1.052790775757145E+000
-5.6389737E-001	-1.045279599270287E+000
-5.6290543E-001	-1.037636372916124E+000
-5.6184572E-001	-1.030063061406571E+000
-5.6085587E-001	-1.022273166174134E+000
-5.5997044E-001	-1.014638656543359E+000
-5.5895835E-001	-1.007176436485306E+000
-5.5794740E-001	-9.992915155986974E-001
-5.5686384E-001	-9.918053496490966E-001
-5.5596989E-001	-9.846938625390518E-001
-5.5493158E-001	-9.767471269049040E-001
-5.5387300E-001	-9.690573756341534E-001
-5.5288076E-001	-9.612598059595125E-001
-5.5193293E-001	-9.544095568082938E-001
-5.5082548E-001	-9.468922111447231E-001
-5.4986471E-001	-9.387233370121368E-001
-5.4890376E-001	-9.309934372151314E-001
-5.4789084E-001	-9.234036990889809E-001
-5.4693693E-001	-9.157365445223311E-001
-5.4591656E-001	-9.086454117463738E-001
-5.4497451E-001	-9.000457481101649E-001
-5.4389364E-001	-8.928721534525146E-001
-5.4287678E-001	-8.858299750696705E-001
-5.4188490E-001	-8.781567642258246E-001
-5.4093099E-001	-8.710836746913964E-001
-5.3988963E-001	-8.632206264193405E-001
-5.3893775E-001	-8.559745043792102E-001
-5.3785592E-001	-8.486934610054835E-001
-5.3682286E-001	-8.409874775895361E-001
-5.3589571E-001	-8.334474562218910E-001
-5.3485483E-001	-8.263985546385304E-001
-5.3393352E-001	-8.187296934149870E-001
-5.3290385E-001	-8.117506204655882E-001
-5.3194755E-001	-8.043757835209213E-001
-5.3084940E-001	-7.972125013669320E-001
-5.2978218E-001	-7.897539456133433E-001
-5.2890575E-001	-7.818240802822274E-001
-5.2793396E-001	-7.746289783605800E-001
-5.2687263E-001	-7.672024417530614E-001
-5.2598047E-001	-7.600181212435952E-001
-5.2490544E-001	-7.527530775577946E-001
-5.2388650E-001	-7.456467474500315E-001
-5.2294177E-001	-7.383200577381013E-001
-5.2190357E-001	-7.307329418620583E-001
-5.2084309E-001	-7.242372864512383E-001
-5.1990753E-001	-7.174409076732342E-001
-5.1897806E-001	-7.099010847094984E-001
-5.1792890E-001	-7.028097317174637E-001
-5.1690060E-001	-6.952742437998980E-001
-5.1593065E-001	-6.886522342209478E-001
-5.1487786E-001	-6.808237383763025E-001
-5.1390815E-001	-6.738675332268560E-001
-5.1294863E-001	-6.667021710977536E-001
-5.1191396E-001	-6.595587605541500E-001
-5.1093560E-001	-6.524422827640692E-001
-5.0988358E-001	-6.448685660682347E-001
-5.0898963E-001	-6.378596616839936E-001
-5.0794256E-001	-6.307618088082569E-001
-5.0690359E-001	-6.237164087317582E-001
-5.0591934E-001	-6.167662289959406E-001
-5.0489759E-001	-6.094469535547660E-001
-5.0396824E-001	-6.022572574654119E-001
-5.0293851E-001	-5.952322042236720E-001
-5.0198489E-001	-5.879235309986828E-001
-5.0096399E-001	-5.807308378732881E-001
-4.9989146E-001	-5.739204438610219E-001
-4.9887818E-001	-5.672401826912696E-001
-4.9791867E-001	-5.600104162952402E-001
-4.9688667E-001	-5.528942800506398E-001
-4.9592236E-001	-5.457310139437066E-001
-4.9492896E-001	-5.382393108059986E-001
-4.9386540E-001	-5.313314826530344E-001
-4.9293837E-001	-5.242922176365488E-001
-4.9197549E-001	-5.174636913946373E-001
-4.9096847E-001	-5.104889844834215E-001
-4.8999679E-001	-5.037032519639641E-001
-4.8898578E-001	-4.964602054959104E-001
-4.8792103E-001	-4.897836630948795E-001
-4.8697445E-001	-4.825830372671271E-001
-4.8592144E-001	-4.753855869725871E-001
-4.8497072E-001	-4.682563238762989E-001
-4.8385295E-001	-4.614332850194627E-001
-4.8288012E-001	-4.543801376389141E-001
-4.8193401E-001	-4.471730867608537E-001
-4.8077789E-001	-4.399277959018946E-001
-4.7969466E-001	-4.325989915264969E-001
-4.7860885E-001	-4.258863749525750E-001
-4.7762361E-001	-4.187115601229472E-001
-4.7668728E-001	-4.118425739860081E-001
-4.7569317E-001	-4.052016356441257E-001
-4.7461158E-001	-3.984283318536139E-001
-4.7368929E-001	-3.911520662131132E-001
-4.7275364E-001	-3.840377779446582E-001
-4.7168937E-001	-3.771821331853666E-001
-4.7067279E-001	-3.706437220658980E-001
-4.6962029E-001	-3.637993200145360E-001
-4.6860141E-001	-3.570512135478632E-001
-4.6770456E-001	-3.500362575330103E-001
-4.6677297E-001	-3.433270659230967E-001
-4.6552664E-001	-3.364027172534012E-001
-4.6465459E-001	-3.294742495787375E-001
-4.6357331E-001	-3.226867256527535E-001
-4.6262476E-001	-3.161505465223278E-001
-4.6178177E-001	-3.091871994030138E-001
-4.6073943E-001	-3.023494162032894E-001
-4.5956543E-001	-2.957919483176545E-001
-4.5861423E-001	-2.888311805134558E-001
-4.5753404E-001	-2.822304110415419E-001
-4.5666283E-001	-2.753512228459665E-001
-4.5576897E-001	-2.686942735755888E-001
-4.5478132E-001	-2.618132593851059E-001
-4.5355758E-001	-2.548879301865332E-001
-4.5264494E-001	-2.481411604072772E-001
-4.5175722E-001	-2.414262565812635E-001
-4.5073983E-001	-2.349411415074162E-001
-4.4960055E-001	-2.282065588610922E-001
-4.4859609E-001	-2.214141095540043E-001
-4.4765380E-001	-2.147822275895770E-001
-4.4655517E-001	-2.079215992679724E-001
-4.4559661E-001	-2.020699150377410E-001
-4.4468591E-001	-1.951186958424456E-001
-4.4362009E-001	-1.881942185926648E-001
-4.4269300E-001	-1.817780535116245E-001
-4.4162768E-001	-1.744242556462132E-001
-4.4068760E-001	-1.678342050395818E-001
-4.3963459E-001	-1.614192719571287E-001
-4.3868339E-001	-1.544094862830301E-001
-4.3761015E-001	-1.477052848007532E-001
-4.3661895E-001	-1.415085681127728E-001
-4.3569472E-001	-1.348097001512847E-001
-4.3449005E-001	-1.280535792721846E-001
-4.3360209E-001	-1.215205440746141E-001
-4.3263799E-001	-1.148450873205784E-001
-4.3161809E-001	-1.086176478713159E-001
-4.3059731E-001	-1.018101149583579E-001
-4.2958358E-001	-9.509015153162176E-002
-4.2849752E-001	-8.863705902939589E-002
-4.2757386E-001	-8.236412804021853E-002
-4.2657855E-001	-7.600979412112530E-002
-4.2576388E-001	-6.942469378431149E-002
-4.2474046E-001	-6.286906193148489E-002
-4.2360088E-001	-5.582931135884595E-002
-4.2265147E-001	-4.931530874695667E-002
-4.2133898E-001	-4.300902199853851E-002
-4.2040923E-001	-3.445356221076223E-002
-4.1923562E-001	-2.795895275666382E-002
-4.1825998E-001	-2.199778764043009E-002
-4.1732067E-001	-1.555690579590635E-002
-4.1646934E-001	-8.931384160158123E-003
-4.1535890E-001	-2.448882494706848E-003
-4.1425371E-001	4.239014817425477E-003
-4.1328099E-001	1.067917326019767E-002
-4.1228223E-001	1.698759532990618E-002
-4.1127187E-001	2.327017562627720E-002
-4.1029394E-001	2.974938673007099E-002
-4.0930864E-001	3.614410859774131E-002
-4.0823188E-001	4.214751738537507E-002
-4.0732861E-001	4.903478784529391E-002
-4.0626633E-001	5.552162774148650E-002
-4.0535012E-001	6.171854336194182E-002
-4.0423322E-001	6.828816978623806E-002
-4.0337309E-001	7.471749231357286E-002
-4.0223461E-001	8.037986857299173E-002
-4.0123591E-001	8.697893704068749E-002
-4.0030122E-001	9.345934728884875E-002
-3.9923406E-001	9.990589486883927E-002
-3.9820942E-001	1.061620306810023E-001
-3.9695492E-001	1.143948618822299E-001
-3.9595696E-001	1.202597518257076E-001
-3.9494845E-001	1.265895776450636E-001
-3.9395097E-001	1.334233154991156E-001
-3.9301702E-001	1.397924994308100E-001
-3.9195278E-001	1.452972697680464E-001
-3.9102072E-001	1.522106187832022E-001
-3.9000994E-001	1.580048210703130E-001
-3.8905808E-001	1.640965829223946E-001
-3.8801739E-001	1.705286178599905E-001
-3.8693944E-001	1.771803393161036E-001
-3.8610420E-001	1.827207444477148E-001
-3.8494238E-001	1.884698050993454E-001
-3.8401631E-001	1.950346187075973E-001
-3.8298211E-001	2.012547536373692E-001
-3.8196641E-001	2.077718021486090E-001
-3.8094077E-001	2.137156794872648E-001
-3.8011119E-001	2.197453908760236E-001
-3.7917763E-001	2.263342238686707E-001
-3.7795773E-001	2.321403584374231E-001
-3.7708858E-001	2.385441878879520E-001
-3.7607056E-001	2.445364986304890E-001
-3.7490630E-001	2.506746960073560E-001
-3.7400126E-001	2.570092949188425E-001
-3.7302083E-001	2.633266802532250E-001
-3.7204915E-001	2.690896913430278E-001
-3.7099522E-001	2.752145315968892E-001
-3.7009045E-001	2.814674764112750E-001
-3.6908561E-001	2.875122637489609E-001
-3.6794397E-001	2.933281717339056E-001
-3.6698750E-001	2.996211434817981E-001
-3.6605823E-001	3.059134148252476E-001
-3.6508855E-001	3.121271213447612E-001
-3.6408243E-001	3.177684165744328E-001
-3.6298794E-001	3.241451879462636E-001
-3.6205766E-001	3.297839540022380E-001
-3.6104664E-001	3.360797958793453E-001
-3.5994649E-001	3.424582083862449E-001
-3.5903060E-001	3.483692847399249E-001
-3.5797358E-001	3.545937570570796E-001
-3.5707843E-001	3.603169008963489E-001
-3.5597974E-001	3.665849883454284E-001
-3.5497215E-001	3.720969068645310E-001
-3.5392216E-001	3.780189262382123E-001
-3.5301045E-001	3.840887884229978E-001
-3.5199291E-001	3.905277195482229E-001
-3.5088769E-001	3.961967646523759E-001
-3.4990039E-001	4.028620535714751E-001
-3.4900397E-001	4.080131486828869E-001
-3.4801629E-001	4.140367287176643E-001
-3.4696731E-001	4.204191427539907E-001
-3.4599760E-001	4.263663717921427E-001
-3.4507811E-001	4.323235111380064E-001
-3.4400111E-001	4.382620333797433E-001
-3.4301278E-001	4.436377809506808E-001
-3.4194139E-001	4.498933250153523E-001
-3.4107783E-001	4.557554606624210E-001
-3.3995339E-001	4.613059238073127E-001
-3.3903143E-001	4.676090678958982E-001
-3.3798838E-001	4.736647779742871E-001
-3.3687368E-001	4.794505191417073E-001
-3.3597106E-001	4.852278834829731E-001
-3.3510876E-001	4.913145707299309E-001
-3.3395147E-001	4.968406348832088E-001
-3.3302823E-001	5.028501929094418E-001
-3.3205074E-001	5.087053653680620E-001
-3.3109972E-001	5.149753120116716E-001
-3.3005357E-001	5.206530734344770E-001
-3.2901242E-001	5.267729301143591E-001
-3.2782367E-001	5.326301875499233E-001
-3.2701823E-001	5.384913158637512E-001
-3.2594422E-001	5.439712809467760E-001
-3.2487115E-001	5.498592065523535E-001
-3.2404655E-001	5.560290194633941E-001
-3.2311764E-001	5.618215090836651E-001
-3.2205394E-001	5.673438147791874E-001
-3.2102305E-001	5.729399251717098E-001
-3.1993359E-001	5.790311850745358E-001
-3.1907502E-001	5.850358450541364E-001
-3.1797990E-001	5.903470580362624E-001
-3.1698883E-001	5.959434572745255E-001
-3.1590983E-001	6.018037841827617E-001
-3.1506845E-001	6.073170893446175E-001
-3.1401631E-001	6.133057356432614E-001
-3.1301314E-001	6.188952849952964E-001
-3.1207156E-001	6.243881528024304E-001
-3.1106520E-001	6.303173144244525E-001
-3.1000370E-001	6.364874234772057E-001
-3.0904344E-001	6.418327653987559E-001
-3.0799994E-001	6.475427269383696E-001
-3.0707493E-001	6.529965240257365E-001
-3.0597475E-001	6.592284845257250E-001
-3.0501935E-001	6.645277919316754E-001
-3.0403164E-001	6.707457407245068E-001
-3.0306461E-001	6.756611594033464E-001
-3.0203685E-001	6.819051510343968E-001
-3.0114880E-001	6.879216615868309E-001
-3.0002376E-001	6.938749469678687E-001
-2.9895863E-001	6.991768168216481E-001
-2.9803172E-001	7.048341891181842E-001
-2.9705289E-001	7.108360221264558E-001
-2.9590002E-001	7.161909639835358E-001
-2.9501402E-001	7.215373318188210E-001
-2.9404941E-001	7.273510075691718E-001
-2.9293486E-001	7.335086520071399E-001
-2.9197988E-001	7.388340958848518E-001
-2.9092923E-001	7.445358607780048E-001
-2.9000390E-001	7.501037875535328E-001
-2.8899655E-001	7.558127253041942E-001
-2.8796834E-001	7.612103315553229E-001
-2.8696457E-001	7.671053106888941E-001
-2.8600699E-001	7.725329333571374E-001
-2.8504801E-001	7.784989638323037E-001
-2.8415811E-001	7.839785457722286E-001
-2.8319800E-001	7.895578795837044E-001
-2.8197360E-001	7.948349979188762E-001
-2.8100741E-001	8.005399662596187E-001
-2.8005388E-001	8.064949901567537E-001
-2.7899024E-001	8.121860573689137E-001
-2.7793017E-001	8.172386458524112E-001
-2.7693030E-001	8.224789244985118E-001
-2.7602789E-001	8.281243940194418E-001
-2.7502403E-001	8.334105138334040E-001
-2.7409753E-001	8.389601067260473E-001
-2.7298898E-001	8.442767491495147E-001
-2.7204800E-001	8.497335029231650E-001
-2.7096549E-001	8.558289679112292E-001
-2.6995385E-001	8.596632973187530E-001
-2.6885998E-001	8.658982764756740E-001
-2.6791847E-001	8.717686013767025E-001
-2.6699743E-001	8.770919100002015E-001
-2.6593089E-001	8.823408334748670E-001
-2.6503628E-001	8.874566577098981E-001
-2.6395041E-001	8.931151722316422E-001
-2.6304883E-001	8.986952534357702E-001
-2.6212233E-001	9.042684804234291E-001
-2.6094988E-001	9.096187274489154E-001
-2.6001209E-001	9.153221407977075E-001
-2.5914851E-001	9.205351841670524E-001
-2.5792027E-001	9.257303088627502E-001
-2.5683850E-001	9.313376015920705E-001
-2.5595686E-001	9.367186640975618E-001
-2.5505590E-001	9.416705621061521E-001
-2.5401005E-001	9.475526096550793E-001
-2.5300443E-001	9.524316787719727E-001
-2.5190160E-001	9.574336093608942E-001
-2.5112778E-001	9.632906131979055E-001
-2.4991415E-001	9.680624493846173E-001
-2.4893115E-001	9.739222712814808E-001
-2.4798378E-001	9.789337421754221E-001
-2.4696940E-001	9.839391090251775E-001
-2.4598470E-001	9.880420422112488E-001
-2.4497050E-001	9.942224404977011E-001
-2.4404331E-001	9.999608627899939E-001
-2.4301341E-001	1.005678657994227E+000
-2.4201728E-001	1.011390707284979E+000
-2.4092737E-001	1.015882846657877E+000
-2.3999825E-001	1.021376165526881E+000
-2.3897517E-001	1.026974802407325E+000
-2.3800831E-001	1.032503008980442E+000
-2.3693494E-001	1.037831553568445E+000
-2.3601823E-001	1.043099086785421E+000
-2.3499630E-001	1.048395617554586E+000
-2.3398255E-001	1.053511267734898E+000
-2.3296858E-001	1.058946399568946E+000
-2.3207466E-001	1.063514075621413E+000
-2.3104732E-001	1.069324352812986E+000
-2.3009656E-001	1.074077967212396E+000
-2.2900434E-001	1.079764221691423E+000
-2.2793946E-001	1.085023547764179E+000
-2.2701246E-001	1.090037480434601E+000
-2.2591321E-001	1.095278388786094E+000
-2.2488518E-001	1.101726164012415E+000
-2.2373278E-001	1.107625706604233E+000
-2.2276969E-001	1.113250159003115E+000
-2.2180060E-001	1.118281149767476E+000
-2.2083020E-001	1.123784148168784E+000
-2.1977486E-001	1.129012266380922E+000
-2.1883294E-001	1.133554829564777E+000
-2.1777494E-001	1.138857870190229E+000
-2.1681717E-001	1.144181336793629E+000
-2.1574894E-001	1.148991489809804E+000
-2.1490423E-001	1.153715277711552E+000
-2.1379079E-001	1.159348613548055E+000
-2.1278439E-001	1.164171784718427E+000
-2.1175095E-001	1.169645686254453E+000
-2.1081866E-001	1.174414255690792E+000
-2.0992215E-001	1.179568329301432E+000
-2.0881423E-001	1.184113015179280E+000
-2.0779477E-001	1.189866173874447E+000
-2.0681927E-001	1.194636469281289E+000
-2.0586334E-001	1.200009316757875E+000
-2.0473738E-001	1.204742540087964E+000
-2.0380695E-001	1.209784474800188E+000
-2.0289487E-001	1.215020290265483E+000
-2.0181300E-001	1.220233475168548E+000
-2.0082128E-001	1.225108995208309E+000
-1.9976598E-001	1.230385914306952E+000
-1.9881119E-001	1.235277211086622E+000
-1.9778872E-001	1.240174313825415E+000
-1.9679216E-001	1.245325580377269E+000
-1.9572367E-001	1.250806075279362E+000
-1.9483382E-001	1.255140684474096E+000
-1.9384569E-001	1.260075422072850E+000
-1.9286437E-001	1.265493865642283E+000
-1.9182222E-001	1.270038042536260E+000
-1.9077852E-001	1.275355836445536E+000
-1.8980041E-001	1.279914296611597E+000
-1.8878776E-001	1.284928712394443E+000
-1.8779370E-001	1.289879918098447E+000
-1.8683955E-001	1.294477000556611E+000
-1.8576635E-001	1.298344368948785E+000
-1.8483007E-001	1.304333653025047E+000
-1.8377961E-001	1.309112407818985E+000
-1.8285599E-001	1.313028304239253E+000
-1.8180811E-001	1.318642137503183E+000
-1.8083337E-001	1.324620210324170E+000
-1.7976955E-001	1.329389970083746E+000
-1.7885613E-001	1.333833670312609E+000
-1.7779513E-001	1.338655317765859E+000
-1.7683986E-001	1.343462784395172E+000
-1.7575209E-001	1.347997058044980E+000
-1.7483236E-001	1.353027375343004E+000
-1.7384972E-001	1.358042933184791E+000
-1.7281601E-001	1.362876412769163E+000
-1.7182514E-001	1.367583993868879E+000
-1.7078955E-001	1.372408184740276E+000
-1.6982779E-001	1.377641567477470E+000
-1.6882789E-001	1.382331630384172E+000
-1.6781892E-001	1.386808476790236E+000
-1.6678883E-001	1.392585812343487E+000
-1.6585669E-001	1.396384463955845E+000
-1.6485868E-001	1.401324883655260E+000
-1.6382688E-001	1.405771665826983E+000
-1.6281994E-001	1.411046458210137E+000
-1.6178943E-001	1.415901433814455E+000
-1.6080877E-001	1.420007388210955E+000
-1.5983121E-001	1.425463084434142E+000
-1.5885529E-001	1.429880556546987E+000
-1.5775648E-001	1.434821003703056E+000
-1.5681149E-001	1.439077422553332E+000
-1.5583032E-001	1.443761407225210E+000
-1.5479472E-001	1.448731144269306E+000
-1.5380944E-001	1.453644246504579E+000
-1.5274771E-001	1.458385099277447E+000
-1.5175942E-001	1.463392454992835E+000
-1.5081351E-001	1.468033021759688E+000
-1.4982969E-001	1.473102374485237E+000
-1.4883459E-001	1.477450049999689E+000
-1.4783919E-001	1.482378062075433E+000
-1.4681345E-001	1.487024739798571E+000
-1.4578782E-001	1.492554015445492E+000
-1.4483215E-001	1.496957700943774E+000
-1.4386742E-001	1.501860659983425E+000
-1.4278007E-001	1.506395845501514E+000
-1.4178096E-001	1.510735393840759E+000
-1.4083950E-001	1.515138246808890E+000
-1.3973920E-001	1.520027281233557E+000
-1.3887964E-001	1.524590659388416E+000
-1.3781479E-001	1.529142153621827E+000
-1.3687825E-001	1.533852574587971E+000
-1.3585716E-001	1.538936933142367E+000
-1.3483609E-001	1.543022980844531E+000
-1.3388832E-001	1.547418431413398E+000
-1.3283856E-001	1.551815686916068E+000
-1.3188116E-001	1.558140311666108E+000
-1.3081118E-001	1.562125441790731E+000
-1.2987180E-001	1.566600038558562E+000
-1.2882653E-001	1.570245027818063E+000
-1.2778117E-001	1.575484459874815E+000
-1.2684591E-001	1.579347610676363E+000
-1.2583573E-001	1.582903568115498E+000
-1.2484405E-001	1.587927037091170E+000
-1.2376056E-001	1.592447453934405E+000
-1.2282500E-001	1.596674172690619E+000
-1.2181018E-001	1.604358959253183E+000
-1.2079318E-001	1.607926186004011E+000
-1.1990486E-001	1.611675494798904E+000
-1.1886247E-001	1.614886813969513E+000
-1.1784448E-001	1.619772360136729E+000
-1.1688417E-001	1.623311839997772E+000
-1.1579362E-001	1.627960472471184E+000
-1.1480448E-001	1.632889699580780E+000
-1.1379008E-001	1.636896769205720E+000
-1.1280575E-001	1.641111553627958E+000
-1.1190109E-001	1.643957270792239E+000
-1.1085424E-001	1.650006382829616E+000
-1.0983203E-001	1.654656416148458E+000
-1.0888952E-001	1.658373443064864E+000
-1.0790841E-001	1.663177682293778E+000
-1.0687064E-001	1.667945562519314E+000
-1.0595686E-001	1.671198184291526E+000
-1.0479186E-001	1.675618928615695E+000
-1.0380716E-001	1.680620028994142E+000
-1.0280570E-001	1.684314439418138E+000
-1.0180701E-001	1.688537707483330E+000
-1.0083701E-001	1.692707696576711E+000
-9.9826790E-002	1.696660449659383E+000
-9.8855048E-002	1.701400472334143E+000
-9.7785980E-002	1.706225311122974E+000
-9.6834727E-002	1.710865274071695E+000
-9.5753513E-002	1.714911211695941E+000
-9.4830237E-002	1.718993972071999E+000
-9.3834192E-002	1.723505633848683E+000
-9.2831455E-002	1.727706254080488E+000
-9.1816597E-002	1.731519539452101E+000
-9.0809271E-002	1.735621640527690E+000
-8.9850023E-002	1.740086858471244E+000
-8.8886388E-002	1.744011350896898E+000
-8.7840736E-002	1.748934362221648E+000
-8.6815111E-002	1.753416504572940E+000
-8.5830338E-002	1.756623641375773E+000
-8.4917836E-002	1.761304903085581E+000
-8.3832391E-002	1.765252166048235E+000
-8.2797602E-002	1.770205200389679E+000
-8.1779622E-002	1.774137092133365E+000
-8.0844566E-002	1.777971218581555E+000
-7.9743579E-002	1.782498609540490E+000
-7.8895330E-002	1.786338678112744E+000
-7.7832781E-002	1.790473936608545E+000
-7.6871976E-002	1.795104818572966E+000
-7.5931065E-002	1.798742485819037E+000
-7.4893758E-002	1.802623949944969E+000
-7.3971935E-002	1.806802313330529E+000
-7.2840579E-002	1.811100730465527E+000
-7.1891099E-002	1.815688536674891E+000
-7.0889197E-002	1.819485595625661E+000
-6.9896884E-002	1.823049729896919E+000
-6.8845585E-002	1.827853878615073E+000
-6.7901134E-002	1.831523363741070E+000
-6.6816792E-002	1.835289972799799E+000
-6.5878339E-002	1.839419377622784E+000
-6.4822212E-002	1.843085209519458E+000
-6.3827924E-002	1.847317701412571E+000
-6.2911958E-002	1.851067018177773E+000
-6.1861299E-002	1.855272572888843E+000
-6.0889326E-002	1.859610594257163E+000
-5.9806623E-002	1.863878027984393E+000
-5.8824576E-002	1.867339869425631E+000
-5.7903413E-002	1.873029524805368E+000
-5.6838963E-002	1.877143441802929E+000
-5.5799581E-002	1.880037365841329E+000
-5.4845598E-002	1.883799367756758E+000
-5.3846054E-002	1.887459737559160E+000
-5.2776616E-002	1.891432901434165E+000
-5.1857784E-002	1.894725933119100E+000
-5.0836600E-002	1.898170402480492E+000
-4.9830906E-002	1.902696517066676E+000
-4.8869323E-002	1.906283434066509E+000
-4.7851544E-002	1.909069385517537E+000
-4.6847753E-002	1.913996095014749E+000
-4.5843970E-002	1.918177505334217E+000
-4.4875979E-002	1.922097872972142E+000
-4.3877762E-002	1.926840910757030E+000
-4.2848729E-002	1.929674883959466E+000
-4.1908402E-002	1.934420304992344E+000
-4.0849641E-002	1.938784829720309E+000
-3.9832491E-002	1.941600654136254E+000
-3.8849618E-002	1.945546602204599E+000
-3.7914012E-002	1.949496629889362E+000
-3.6833011E-002	1.953145542630445E+000
-3.5892595E-002	1.956862847251259E+000
-3.4872316E-002	1.960918942259411E+000
-3.3846680E-002	1.964494539907687E+000
-3.2933120E-002	1.968026454877457E+000
-3.1887259E-002	1.972471633443128E+000
-3.0892171E-002	1.975829702836501E+000
-2.9898766E-002	1.979222359907411E+000
-2.8887564E-002	1.983300237468008E+000
-2.7862776E-002	1.986419609575371E+000
-2.6977671E-002	1.990574643353508E+000
-2.5887234E-002	1.994444583577133E+000
-2.4837840E-002	1.998811340442412E+000
-2.3768015E-002	2.001378794691291E+000
-2.2893054E-002	2.006326756543594E+000
-2.1890115E-002	2.009711066329924E+000
-2.0907408E-002	2.013151879420233E+000
-1.9855814E-002	2.017561705300096E+000
-1.8915242E-002	2.021217396413842E+000
-1.7898982E-002	2.023764826018036E+000
-1.6864182E-002	2.028015112711325E+000
-1.5781483E-002	2.031208091311985E+000
-1.4855526E-002	2.034745139771083E+000
-1.3811455E-002	2.038189155360065E+000
-1.2847336E-002	2.042443731040862E+000
-1.1821263E-002	2.045691978203322E+000
-1.0890674E-002	2.049839313659412E+000
-9.8234601E-003	2.053552659021484E+000
-8.8465651E-003	2.056375738312329E+000
-7.7817338E-003	2.060492582343244E+000
-6.8299179E-003	2.063416073443705E+000
-5.8557792E-003	2.067914304372039E+000
-4.8970124E-003	2.070894276378347E+000
-3.8758314E-003	2.076192543738415E+000
-2.9545734E-003	2.080126957438022E+000
-1.8964706E-003	2.082114406205982E+000
-8.3646970E-004	2.085356769186479E+000
2.1399539E-005	2.089114242723554E+000
1.1424664E-003	2.092887394682121E+000
2.1093427E-003	2.095364636845076E+000
3.1083778E-003	2.099139473286925E+000
4.1169161E-003	2.102944871617684E+000
5.1378850E-003	2.106959855942812E+000
6.0859737E-003	2.108603219590922E+000
6.7318114E-003	2.110449860493340E+000
6.7394483E-003	2.110291063785553E+000