EC-Lab ASCII FILE
Nb header lines : 63                          

Linear Sweep Voltammetry

Run on channel : 6 (SN 13765)
User : 
Electrode connection : standard
Potential control : Ewe
Ewe ctrl range : min = -2.50 V, max = 2.50 V
Ewe,I filtering : <None>
Safety Limits :
	Do not start on E overload
Channel : Floating
Acquisition started on : 07/13/2026 14:39:11.447
Technique started on : 07/13/2026 14:39:12.444
Loaded Setting File :  C:\Users\EEM-620\Desktop\Wade\20260630\LSV 1mg MoS2 1_C06.mpr
Saved on :
	File : N719_0713-0-5_C06.mpr
	Directory : C:\Users\EEM-620\Desktop\Wade\abao\20260713\
	Host : 192.109.209.200
Device : VSP-300 (SN 0025)
Address : 192.109.209.129
EC-LAB for windows v11.62 (software)
Internet server v27.00 (firmware)
Command interpretor v12.02 (firmware)
Electrode material : Au/Pd
Initial state : 
Electrolyte : NaCl (0.2M)
Comments : Fe(CN)63-/Fe(CN)64- 5.10-3 M
Cable : ULC
Reference electrode : SCE Saturated Calomel Electrode (0.241 V)
Electrode surface area : 0.001 cm2
Characteristic mass : 0.001 g
Equivalent Weight : 0.000 g/eq.
Density : 0.000 g/cm3
Volume (V) : 0.001 cm3
Cycle Definition : Charge/Discharge alternance
tR (h:m:s)          0:00:5.0000         
dER/dt (mV/h)       0.0                 
dER (mV)            0                   
dtR (s)             0.0500              
dE/dt               10.000              
dE/dt unit          mV/s                
Ei (V)              -0.800              
vs.                 Ref                 
EL (V)              0.010               
vs.                 Ref                 
record              <I>                 
dI                  0.000               
unit dI             uA                  
tI (s)              0.0000              
step percent        50                  
N                   10                  
E range min (V)     -2.500              
E range max (V)     2.500               
I Range             Auto                
I Range min         Unset               
I Range max         Unset               
I Range init        Unset               
Bandwidth           8                   

Ewe/V	<I>/mA	
-6.7530692E-001	0.000000000000000E+000
-6.7530692E-001	0.000000000000000E+000
-6.7488307E-001	0.000000000000000E+000
-6.7495561E-001	0.000000000000000E+000
-6.7522293E-001	0.000000000000000E+000
-6.7515796E-001	0.000000000000000E+000
-6.7567348E-001	0.000000000000000E+000
-6.7564678E-001	0.000000000000000E+000
-6.7560476E-001	0.000000000000000E+000
-6.7523438E-001	0.000000000000000E+000
-6.7504728E-001	0.000000000000000E+000
-6.7498237E-001	0.000000000000000E+000
-6.7531455E-001	0.000000000000000E+000
-6.7532218E-001	0.000000000000000E+000
-6.7520767E-001	0.000000000000000E+000
-6.7510456E-001	0.000000000000000E+000
-6.7555892E-001	0.000000000000000E+000
-6.7544824E-001	0.000000000000000E+000
-6.7534894E-001	0.000000000000000E+000
-6.7514658E-001	0.000000000000000E+000
-6.7502433E-001	0.000000000000000E+000
-6.7498618E-001	0.000000000000000E+000
-6.7515415E-001	0.000000000000000E+000
-6.7468834E-001	0.000000000000000E+000
-6.7495567E-001	0.000000000000000E+000
-6.7513508E-001	0.000000000000000E+000
-6.7474562E-001	0.000000000000000E+000
-6.7533368E-001	0.000000000000000E+000
-6.7517328E-001	0.000000000000000E+000
-6.7534894E-001	0.000000000000000E+000
-6.7518473E-001	0.000000000000000E+000
-6.7505866E-001	0.000000000000000E+000
-6.7484492E-001	0.000000000000000E+000
-6.7563146E-001	0.000000000000000E+000
-6.7510456E-001	0.000000000000000E+000
-6.7515802E-001	0.000000000000000E+000
-6.7539853E-001	0.000000000000000E+000
-6.7523819E-001	0.000000000000000E+000
-6.7499000E-001	0.000000000000000E+000
-6.7533368E-001	0.000000000000000E+000
-6.7512363E-001	0.000000000000000E+000
-6.7529166E-001	0.000000000000000E+000
-6.7560095E-001	0.000000000000000E+000
-6.7507398E-001	0.000000000000000E+000
-6.7528021E-001	0.000000000000000E+000
-6.7504728E-001	0.000000000000000E+000
-6.7517710E-001	0.000000000000000E+000
-6.7503959E-001	0.000000000000000E+000
-6.7520380E-001	0.000000000000000E+000
-6.7523444E-001	0.000000000000000E+000
-6.7507786E-001	0.000000000000000E+000
-6.7543674E-001	0.000000000000000E+000
-6.7529929E-001	0.000000000000000E+000
-6.7506635E-001	0.000000000000000E+000
-6.7503965E-001	0.000000000000000E+000
-6.7558569E-001	0.000000000000000E+000
-6.7529547E-001	0.000000000000000E+000
-6.7494035E-001	0.000000000000000E+000
-6.7521912E-001	0.000000000000000E+000
-6.7491364E-001	0.000000000000000E+000
-6.7526108E-001	0.000000000000000E+000
-6.7935050E-001	0.000000000000000E+000
-6.8009508E-001	0.000000000000000E+000
-7.8920656E-001	-1.401046024716419E+000
-7.8875428E-001	-1.391639212485909E+000
-7.8777021E-001	-1.376762251887053E+000
-7.8681654E-001	-1.363145242272704E+000
-7.8572994E-001	-1.349510907017937E+000
-7.8470308E-001	-1.336371654713594E+000
-7.8367579E-001	-1.322965538612120E+000
-7.8277862E-001	-1.310305753396623E+000
-7.8178686E-001	-1.296858806990908E+000
-7.8076535E-001	-1.284151102243749E+000
-7.7979338E-001	-1.270926987812981E+000
-7.7876967E-001	-1.257855925846982E+000
-7.7780342E-001	-1.244949422914676E+000
-7.7676797E-001	-1.232555758417867E+000
-7.7585596E-001	-1.220011089824967E+000
-7.7469635E-001	-1.207403805934721E+000
-7.7375817E-001	-1.194584456823112E+000
-7.7280527E-001	-1.181763492386647E+000
-7.7168733E-001	-1.169468045234682E+000
-7.7075034E-001	-1.156758791791745E+000
-7.6981425E-001	-1.144115486354742E+000
-7.6877207E-001	-1.131791441252933E+000
-7.6777065E-001	-1.119024794362495E+000
-7.6671976E-001	-1.106798074449655E+000
-7.6573765E-001	-1.094245634697103E+000
-7.6480341E-001	-1.081524498557245E+000
-7.6375103E-001	-1.068765081879167E+000
-7.6268762E-001	-1.056556072224065E+000
-7.6183683E-001	-1.044149545067844E+000
-7.6080400E-001	-1.031565561890604E+000
-7.5976688E-001	-1.018969634064923E+000
-7.5883758E-001	-1.006857523661640E+000
-7.5777709E-001	-9.941754870944548E-001
-7.5675374E-001	-9.817017628638851E-001
-7.5578141E-001	-9.693905724671462E-001
-7.5480944E-001	-9.568947152131138E-001
-7.5378382E-001	-9.445406470145574E-001
-7.5277740E-001	-9.321355437514978E-001
-7.5180423E-001	-9.199840810011946E-001
-7.5076270E-001	-9.073896690092518E-001
-7.4980748E-001	-8.952264751273180E-001
-7.4878228E-001	-8.827269011073606E-001
-7.4784875E-001	-8.705703252027952E-001
-7.4678344E-001	-8.583498864814096E-001
-7.4576372E-001	-8.461001163555508E-001
-7.4475610E-001	-8.337505396241145E-001
-7.4375594E-001	-8.214854495944799E-001
-7.4267751E-001	-8.093404816808496E-001
-7.4175024E-001	-7.969301106680433E-001
-7.4082363E-001	-7.846479128908257E-001
-7.3976165E-001	-7.721835387939657E-001
-7.3883426E-001	-7.600800005237431E-001
-7.3778224E-001	-7.478725211349886E-001
-7.3681313E-001	-7.359308327927643E-001
-7.3581505E-001	-7.237769958617953E-001
-7.3485553E-001	-7.114190095690685E-001
-7.3383409E-001	-6.991765683309943E-001
-7.3282677E-001	-6.869940707863300E-001
-7.3183602E-001	-6.746922226415748E-001
-7.3084134E-001	-6.621868738007777E-001
-7.2988772E-001	-6.506106969037520E-001
-7.2880584E-001	-6.380898245368796E-001
-7.2777230E-001	-6.258496555189286E-001
-7.2686845E-001	-6.136802901459726E-001
-7.2578353E-001	-6.015761467041776E-001
-7.2476393E-001	-5.896592593441392E-001
-7.2379231E-001	-5.771368569884565E-001
-7.2280413E-001	-5.650376790651572E-001
-7.2177827E-001	-5.530227003274160E-001
-7.2084212E-001	-5.407908982987006E-001
-7.1981633E-001	-5.289359256211270E-001
-7.1886337E-001	-5.167341998053914E-001
-7.1783495E-001	-5.044730304430770E-001
-7.1675634E-001	-4.925742256282657E-001
-7.1584016E-001	-4.803469273503147E-001
-7.1472436E-001	-4.679697059456975E-001
-7.1379137E-001	-4.560045966947524E-001
-7.1267992E-001	-4.433608784626824E-001
-7.1167308E-001	-4.295240364692836E-001
-7.1051097E-001	-4.175044891458961E-001
-7.0957494E-001	-4.056196051866587E-001
-7.0869273E-001	-3.933829306107426E-001
-7.0753914E-001	-3.813787607338153E-001
-7.0656449E-001	-3.693532143935307E-001
-7.0565683E-001	-3.573210395320707E-001
-7.0454478E-001	-3.453569702321196E-001
-7.0359802E-001	-3.332265595681863E-001
-7.0255679E-001	-3.214186520350211E-001
-7.0147067E-001	-3.092703505384693E-001
-7.0050102E-001	-2.970743996017324E-001
-6.9954765E-001	-2.851406239249092E-001
-6.9857687E-001	-2.731102460443435E-001
-6.9758993E-001	-2.609720586216420E-001
-6.9652176E-001	-2.490197954423445E-001
-6.9545513E-001	-2.371802421424682E-001
-6.9448900E-001	-2.251828831152860E-001
-6.9362527E-001	-2.133281551025532E-001
-6.9253969E-001	-2.015493241380211E-001
-6.9157612E-001	-1.894488235725924E-001
-6.9048989E-001	-1.777003924879770E-001
-6.8947589E-001	-1.656869544509658E-001
-6.8857610E-001	-1.538214931917872E-001
-6.8752921E-001	-1.417990748391107E-001
-6.8652952E-001	-1.300104115054839E-001
-6.8563157E-001	-1.180831439623746E-001
-6.8447030E-001	-1.061152701818002E-001
-6.8341941E-001	-9.432626347471429E-002
-6.8256724E-001	-8.227533348007388E-002
-6.8161082E-001	-7.041551694446424E-002
-6.8056101E-001	-5.869927049476531E-002
-6.7944348E-001	-4.658119947121853E-002
-6.7830503E-001	-3.341541970084005E-002
-6.7719990E-001	-1.978705107036083E-002
-6.7624956E-001	-7.780228444086712E-003
-6.7525697E-001	3.843670971339933E-003
-6.7422283E-001	1.587554098632946E-002
-6.7322117E-001	2.781174351658848E-002
-6.7224354E-001	3.957496878380568E-002
-6.7125100E-001	5.130573503966296E-002
-6.7016405E-001	6.336083804780590E-002
-6.6912818E-001	7.519964680627522E-002
-6.6799587E-001	8.714130212966786E-002
-6.6716558E-001	9.884155477770540E-002
-6.6603649E-001	1.123475259195803E-001
-6.6497403E-001	1.255146142385182E-001
-6.6395617E-001	1.373365346721751E-001
-6.6278344E-001	1.491507446496858E-001
-6.6188890E-001	1.609995513257107E-001
-6.6093206E-001	1.728192616978461E-001
-6.5984917E-001	1.846625653130036E-001
-6.5881205E-001	1.958849676609802E-001
-6.5788674E-001	2.077461882942808E-001
-6.5695268E-001	2.193960200788245E-001
-6.5581000E-001	2.312001056309256E-001
-6.5486217E-001	2.427362735486680E-001
-6.5390658E-001	2.543077179127262E-001
-6.5282607E-001	2.659714426168938E-001
-6.5191275E-001	2.778790040217629E-001
-6.5091854E-001	2.892682019759110E-001
-6.4990550E-001	3.011199199001737E-001
-6.4879751E-001	3.126387245332198E-001
-6.4792794E-001	3.244009551902618E-001
-6.4687270E-001	3.360134407007118E-001
-6.4569825E-001	3.477224029117725E-001
-6.4484370E-001	3.593302759928267E-001
-6.4391237E-001	3.708320259759320E-001
-6.4287823E-001	3.824632154018790E-001
-6.4180517E-001	3.939503890427725E-001
-6.4085501E-001	4.056105177903895E-001
-6.3983762E-001	4.169999260317407E-001
-6.3879400E-001	4.286424210640024E-001
-6.3775563E-001	4.398653075487502E-001
-6.3686305E-001	4.517785169322179E-001
-6.3581616E-001	4.631874838636987E-001
-6.3493711E-001	4.746768241733501E-001
-6.3390809E-001	4.863428120949753E-001
-6.3285381E-001	4.977571930460363E-001
-6.3189501E-001	5.094367414293259E-001
-6.3081992E-001	5.209396674677222E-001
-6.2984866E-001	5.322157730934777E-001
-6.2889814E-001	5.437374865767115E-001
-6.2783694E-001	5.552849350842060E-001
-6.2672859E-001	5.667763885662516E-001
-6.2592262E-001	5.782142223196938E-001
-6.2477261E-001	5.897861174825203E-001
-6.2398982E-001	6.010387966892221E-001
-6.2284225E-001	6.124843518353167E-001
-6.2193519E-001	6.239447702688228E-001
-6.2093139E-001	6.352832892702702E-001
-6.1984706E-001	6.468826538392742E-001
-6.1879510E-001	6.581919296748096E-001
-6.1773551E-001	6.695774332792670E-001
-6.1689246E-001	6.808590170014028E-001
-6.1591524E-001	6.921989890160403E-001
-6.1467397E-001	7.036199758823685E-001
-6.1390448E-001	7.149100934879644E-001
-6.1288726E-001	7.262860198539762E-001
-6.1193210E-001	7.378515885639416E-001
-6.1084282E-001	7.490901147463838E-001
-6.0989636E-001	7.604661185846275E-001
-6.0901940E-001	7.718390565396689E-001
-6.0781032E-001	7.830843563984935E-001
-6.0700566E-001	7.942379381921540E-001
-6.0580117E-001	8.059972651311949E-001
-6.0486591E-001	8.171502909174690E-001
-6.0390478E-001	8.284215360052127E-001
-6.0299641E-001	8.399270590411447E-001
-6.0193771E-001	8.509677794796451E-001
-6.0091931E-001	8.621235979651969E-001
-5.9982896E-001	8.734316629155376E-001
-5.9896100E-001	8.846026761112391E-001
-5.9795374E-001	8.959979969594225E-001
-5.9693193E-001	9.069114604115427E-001
-5.9588081E-001	9.182022146328741E-001
-5.9486747E-001	9.293007069715760E-001
-5.9386110E-001	9.405994778929774E-001
-5.9278059E-001	9.515397532118706E-001
-5.9189433E-001	9.629110173770661E-001
-5.9073353E-001	9.743432125930944E-001
-5.8995998E-001	9.854505143507781E-001
-5.8886623E-001	9.967382339139803E-001
-5.8781290E-001	1.007909906106346E+000
-5.8677524E-001	1.019082879578628E+000
-5.8576173E-001	1.030221458662443E+000
-5.8483642E-001	1.041477318557939E+000
-5.8387953E-001	1.052540172305374E+000
-5.8290440E-001	1.063566127171118E+000
-5.8185434E-001	1.074741382736104E+000
-5.8078456E-001	1.085865510972564E+000
-5.7972461E-001	1.098321883400686E+000
-5.7861352E-001	1.110970352479315E+000
-5.7761437E-001	1.121815950644240E+000
-5.7661629E-001	1.133222727449958E+000
-5.7562125E-001	1.144179722189239E+000
-5.7462633E-001	1.155026562511921E+000
-5.7357097E-001	1.166088933263360E+000
-5.7263321E-001	1.177107310543459E+000
-5.7168329E-001	1.187577508665900E+000
-5.7065862E-001	1.198900809716262E+000
-5.6969118E-001	1.209783429624857E+000
-5.6861168E-001	1.221004467043613E+000
-5.6761897E-001	1.231676692085065E+000
-5.6669253E-001	1.242472636754865E+000
-5.6566393E-001	1.253472600960066E+000
-5.6457847E-001	1.264039502276736E+000
-5.6370914E-001	1.275268085576870E+000
-5.6263798E-001	1.286068672659225E+000
-5.6165540E-001	1.297174658468194E+000
-5.6057626E-001	1.307869645180530E+000
-5.5968720E-001	1.318640011466215E+000
-5.5869508E-001	1.329673996016094E+000
-5.5764830E-001	1.340625675326145E+000
-5.5664492E-001	1.351376528955167E+000
-5.5558115E-001	1.362002265189623E+000
-5.5463350E-001	1.373041887112239E+000
-5.5356902E-001	1.384019046469968E+000
-5.5269229E-001	1.394681047206774E+000
-5.5166221E-001	1.405379059690015E+000
-5.5059355E-001	1.416779052880076E+000
-5.4971951E-001	1.426866343499881E+000
-5.4866362E-001	1.437438407567921E+000
-5.4766679E-001	1.448255817785295E+000
-5.4664332E-001	1.459195456504268E+000
-5.4557651E-001	1.469520863007610E+000
-5.4470491E-001	1.480357348918918E+000
-5.4367864E-001	1.491122833783463E+000
-5.4266083E-001	1.502093167492632E+000
-5.4166812E-001	1.512798257172115E+000
-5.4064500E-001	1.523323853695434E+000
-5.3965795E-001	1.533930716553225E+000
-5.3869194E-001	1.544527226852050E+000
-5.3770250E-001	1.555271323897145E+000
-5.3673041E-001	1.565702583226892E+000
-5.3567594E-001	1.576183853050068E+000
-5.3468382E-001	1.587032267745357E+000
-5.3361380E-001	1.597623836938985E+000
-5.3261787E-001	1.607952051692550E+000
-5.3166562E-001	1.618470260029987E+000
-5.3057301E-001	1.628726907350394E+000
-5.2968228E-001	1.639334294807027E+000
-5.2861303E-001	1.649495680514864E+000
-5.2762932E-001	1.660497825178840E+000
-5.2670223E-001	1.671042427420620E+000
-5.2567160E-001	1.681428423723321E+000
-5.2472001E-001	1.691757162412006E+000
-5.2368474E-001	1.702642040120246E+000
-5.2265668E-001	1.712854870160081E+000
-5.2157325E-001	1.723606990443340E+000
-5.2065939E-001	1.734407891001966E+000
-5.1968402E-001	1.744665722739336E+000
-5.1867622E-001	1.754604874385727E+000
-5.1762217E-001	1.764829590640687E+000
-5.1664257E-001	1.775024694320344E+000
-5.1567739E-001	1.785688225593830E+000
-5.1459765E-001	1.795834516485534E+000
-5.1354229E-001	1.806173730033048E+000
-5.1266158E-001	1.816977305544746E+000
-5.1162320E-001	1.826937305982469E+000
-5.1068771E-001	1.837602916319103E+000
-5.0967419E-001	1.847318210535569E+000
-5.0868660E-001	1.858361180993057E+000
-5.0775015E-001	1.868211704271815E+000
-5.0658709E-001	1.878412888833772E+000
-5.0562209E-001	1.888772258313242E+000
-5.0468832E-001	1.898997128837639E+000
-5.0367117E-001	1.909112817435353E+000
-5.0270802E-001	1.919410938224559E+000
-5.0165069E-001	1.929811439856334E+000
-5.0065666E-001	1.939888975410559E+000
-4.9966350E-001	1.950116115091745E+000
-4.9864906E-001	1.960097829500832E+000
-4.9774411E-001	1.970621886904588E+000
-4.9674606E-001	1.980873016213501E+000
-4.9558949E-001	1.991070905217420E+000
-4.9461266E-001	2.000695215883076E+000
-4.9363354E-001	2.011250682817504E+000
-4.9264526E-001	2.021446903546646E+000
-4.9170718E-001	2.031526407157934E+000
-4.9064770E-001	2.041999158500900E+000
-4.8969552E-001	2.051534625667108E+000
-4.8865187E-001	2.061999958974333E+000
-4.8767799E-001	2.071329159448403E+000
-4.8666447E-001	2.081951823499466E+000
-4.8564816E-001	2.092551542652977E+000
-4.8461321E-001	2.102286026885082E+000
-4.8366901E-001	2.112290099263195E+000
-4.8259264E-001	2.122102526602916E+000
-4.8166880E-001	2.132060215460079E+000
-4.8063982E-001	2.142174174940145E+000
-4.7966725E-001	2.152096940411461E+000
-4.7867575E-001	2.161855686321664E+000
-4.7762555E-001	2.172230053279140E+000
-4.7670022E-001	2.181814489265300E+000
-4.7564891E-001	2.191736065674490E+000
-4.7462434E-001	2.201279704493516E+000
-4.7363898E-001	2.211511683684819E+000
-4.7264415E-001	2.221532751506629E+000
-4.7159240E-001	2.231048758659092E+000
-4.7065350E-001	2.240721381924772E+000
-4.6965441E-001	2.250701942567297E+000
-4.6862856E-001	2.260502742948361E+000
-4.6767148E-001	2.269963450177947E+000
-4.6667290E-001	2.279800584868333E+000
-4.6568468E-001	2.289812153964128E+000
-4.6464714E-001	2.299215352369696E+000
-4.6362832E-001	2.309358847026421E+000
-4.6263984E-001	2.319167641026006E+000
-4.6161035E-001	2.328942539239369E+000
-4.6065435E-001	2.338589632983656E+000
-4.5966154E-001	2.347588987262156E+000
-4.5863053E-001	2.357682010365854E+000
-4.5765716E-001	2.367100914700771E+000
-4.5655766E-001	2.377046316034264E+000
-4.5570233E-001	2.386510855621763E+000
-4.5465511E-001	2.396027884137219E+000
-4.5361421E-001	2.405612959078072E+000
-4.5265687E-001	2.415504441493090E+000
-4.5169333E-001	2.424970689928081E+000
-4.5066583E-001	2.434343735652931E+000
-4.4964871E-001	2.443535600823381E+000
-4.4859120E-001	2.453597028018383E+000
-4.4760036E-001	2.463099161507898E+000
-4.4667277E-001	2.471872775367011E+000
-4.4569165E-001	2.481687768465937E+000
-4.4467917E-001	2.491370413866306E+000
-4.4367263E-001	2.500472093345945E+000
-4.4268453E-001	2.509947979735770E+000
-4.4173038E-001	2.519010141215951E+000
-4.4064230E-001	2.528861604267576E+000
-4.3967888E-001	2.538154642063159E+000
-4.3868297E-001	2.547311135188302E+000
-4.3774167E-001	2.556287523829579E+000
-4.3671376E-001	2.565664289174256E+000
-4.3570006E-001	2.575156615288165E+000
-4.3465409E-001	2.584499895899732E+000
-4.3367630E-001	2.593793917861252E+000
-4.3262035E-001	2.602944895073232E+000
-4.3166903E-001	2.611742807188904E+000
-4.3067664E-001	2.621052045513084E+000
-4.2963573E-001	2.630191623612681E+000
-4.2871326E-001	2.639612515759715E+000
-4.2764810E-001	2.648269914642533E+000
-4.2672363E-001	2.657366524967882E+000
-4.2570749E-001	2.666157538306891E+000
-4.2468020E-001	2.675891408489816E+000
-4.2370081E-001	2.684778520906413E+000
-4.2273036E-001	2.694192420011270E+000
-4.2170301E-001	2.702923598112896E+000
-4.2060882E-001	2.712341049755064E+000
-4.1964278E-001	2.720973466306768E+000
-4.1864899E-001	2.730159438318672E+000
-4.1768509E-001	2.738717772342540E+000
-4.1668922E-001	2.747684517776172E+000
-4.1568622E-001	2.756745891714537E+000
-4.1463512E-001	2.766503170960483E+000
-4.1373315E-001	2.775603279915820E+000
-4.1272792E-001	2.783685836527077E+000
-4.1172051E-001	2.792981933664400E+000
-4.1073847E-001	2.801901171545623E+000
-4.0966329E-001	2.811062521956590E+000
-4.0868217E-001	2.819287487202221E+000
-4.0768895E-001	2.828201098579505E+000
-4.0669137E-001	2.837081825015716E+000
-4.0568826E-001	2.846361633804114E+000
-4.0467462E-001	2.854721440750069E+000
-4.0366238E-001	2.863166219658325E+000
-4.0262294E-001	2.871880445491392E+000
-4.0167791E-001	2.880785778903146E+000
-4.0068540E-001	2.888872682220409E+000
-3.9972112E-001	2.897578462958334E+000
-3.9868352E-001	2.906084761642541E+000
-3.9766645E-001	2.915184443747552E+000
-3.9664358E-001	2.923190446087602E+000
-3.9569372E-001	2.931944901313575E+000
-3.9466929E-001	2.940892862225006E+000
-3.9364260E-001	2.949054439034718E+000
-3.9272991E-001	2.957615738697143E+000
-3.9170751E-001	2.966081906523971E+000
-3.9067748E-001	2.975472887633021E+000
-3.8969943E-001	2.983278098881733E+000
-3.8869002E-001	2.991495182944671E+000
-3.8774157E-001	3.000353258793012E+000
-3.8670146E-001	3.008788334361291E+000
-3.8561228E-001	3.017427301241298E+000
-3.8467127E-001	3.025299187059758E+000
-3.8376161E-001	3.034170459633799E+000
-3.8264757E-001	3.042708578760973E+000
-3.8159481E-001	3.051317129698063E+000
-3.8070676E-001	3.059419294840936E+000
-3.7967122E-001	3.067607741389011E+000
-3.7865600E-001	3.075967277641652E+000
-3.7770164E-001	3.084431487664993E+000
-3.7665519E-001	3.092947032440591E+000
-3.7562105E-001	3.100469944101803E+000
-3.7468642E-001	3.109232799958392E+000
-3.7362623E-001	3.117365448563177E+000
-3.7267959E-001	3.125610898745002E+000
-3.7171096E-001	3.133743676874381E+000
-3.7072685E-001	3.142275796444330E+000
-3.6961302E-001	3.150293565908266E+000
-3.6868241E-001	3.158367424099527E+000
-3.6770764E-001	3.166261354530292E+000
-3.6666483E-001	3.173889036537858E+000
-3.6568356E-001	3.181816914015350E+000
-3.6468717E-001	3.190116181417764E+000
-3.6370119E-001	3.197854633074890E+000
-3.6275473E-001	3.206046086218622E+000
-3.6174154E-001	3.213479666798193E+000
-3.6071074E-001	3.221787295898629E+000
-3.5971448E-001	3.229359789578986E+000
-3.5866469E-001	3.237562440059808E+000
-3.5771742E-001	3.245144715156115E+000
-3.5666347E-001	3.253095942514904E+000
-3.5568348E-001	3.261229477546834E+000
-3.5479417E-001	3.269111677734923E+000
-3.5372147E-001	3.276697096449354E+000
-3.5267058E-001	3.284967757485518E+000
-3.5163230E-001	3.291973853127333E+000
-3.5069144E-001	3.300272546432637E+000
-3.4966347E-001	3.307973177344714E+000
-3.4870175E-001	3.315723096949469E+000
-3.4770066E-001	3.323146749977703E+000
-3.4666440E-001	3.330830012206690E+000
-3.4557122E-001	3.338700685327233E+000
-3.4474128E-001	3.346354364245030E+000
-3.4376249E-001	3.353760223697739E+000
-3.4273732E-001	3.360996283931570E+000
-3.4174049E-001	3.369061802824319E+000
-3.4072167E-001	3.376187328387188E+000
-3.3972937E-001	3.383931482292468E+000
-3.3872235E-001	3.390825901318479E+000
-3.3775446E-001	3.398724780590458E+000
-3.3670855E-001	3.406081280809978E+000
-3.3564904E-001	3.412942855998327E+000
-3.3472502E-001	3.420627739694375E+000
-3.3368614E-001	3.427689573893890E+000
-3.3271068E-001	3.434849208151860E+000
-3.3170074E-001	3.442128089842967E+000
-3.3069745E-001	3.449760608942391E+000
-3.2980770E-001	3.456873513482222E+000
-3.2866457E-001	3.463603523042472E+000
-3.2774934E-001	3.470943134988104E+000
-3.2669199E-001	3.478411049202627E+000
-3.2568946E-001	3.485661450911451E+000
-3.2469934E-001	3.492725589596017E+000
-3.2377243E-001	3.501114714476785E+000
-3.2277676E-001	3.507479127910393E+000
-3.2173562E-001	3.514126812217725E+000
-3.2074097E-001	3.521186821990542E+000
-3.1972677E-001	3.527979397111476E+000
-3.1879571E-001	3.535304860193961E+000
-3.1776881E-001	3.542292079439882E+000
-3.1675908E-001	3.549309663750513E+000
-3.1571600E-001	3.556411273789754E+000
-3.1472626E-001	3.563367375621101E+000
-3.1375244E-001	3.569808984244313E+000
-3.1267416E-001	3.576912612394819E+000
-3.1181630E-001	3.583656081998784E+000
-3.1070903E-001	3.590110342259763E+000
-3.0976102E-001	3.597272827957372E+000
-3.0863759E-001	3.603823277685350E+000
-3.0779707E-001	3.610329944047230E+000
-3.0674076E-001	3.616772022512230E+000
-3.0574587E-001	3.623516887978298E+000
-3.0470687E-001	3.630251975246367E+000
-3.0375358E-001	3.636794299991053E+000
-3.0275914E-001	3.642017397063753E+000
-3.0167973E-001	3.649108871231777E+000
-3.0073801E-001	3.654741208862376E+000
-2.9971701E-001	3.661695624391257E+000
-2.9870397E-001	3.667772878099314E+000
-2.9767805E-001	3.674325138882367E+000
-2.9673386E-001	3.681504115462310E+000
-2.9572210E-001	3.687914697202629E+000
-2.9463786E-001	3.694307225169950E+000
-2.9374561E-001	3.701436334738034E+000
-2.9277775E-001	3.707468926845500E+000
-2.9169136E-001	3.714569921294881E+000
-2.9077461E-001	3.720603301017363E+000
-2.8975332E-001	3.727954205038159E+000
-2.8880563E-001	3.733381773034738E+000
-2.8769428E-001	3.740385683598348E+000
-2.8669631E-001	3.746076742060581E+000
-2.8577006E-001	3.753521642199264E+000
-2.8474677E-001	3.759638708498727E+000
-2.8373227E-001	3.765676120038250E+000
-2.8280050E-001	3.771530646968772E+000
-2.8176087E-001	3.778220778814060E+000
-2.8065804E-001	3.784068695659030E+000
-2.7978215E-001	3.790746562458843E+000
-2.7871600E-001	3.796214611442004E+000
-2.7766293E-001	3.802189696751761E+000
-2.7677524E-001	3.808281722444079E+000
-2.7574259E-001	3.813473193181903E+000
-2.7477151E-001	3.819684181251624E+000
-2.7370363E-001	3.826189407595876E+000
-2.7276540E-001	3.831901589477511E+000
-2.7176476E-001	3.837775690564095E+000
-2.7072537E-001	3.844455253746774E+000
-2.6973280E-001	3.849778311672026E+000
-2.6876888E-001	3.855808897196752E+000
-2.6775089E-001	3.860881113343771E+000
-2.6671168E-001	3.866688114073540E+000
-2.6566902E-001	3.872131191338596E+000
-2.6468503E-001	3.878245047948980E+000
-2.6369843E-001	3.884113481199300E+000
-2.6274997E-001	3.889435021150771E+000
-2.6172650E-001	3.895193987974402E+000
-2.6071823E-001	3.900314726211406E+000
-2.5969389E-001	3.906311873853880E+000
-2.5873995E-001	3.911467845793112E+000
-2.5773746E-001	3.917601056121011E+000
-2.5665429E-001	3.923382075308847E+000
-2.5574362E-001	3.928674253048740E+000
-2.5479227E-001	3.933402204403173E+000
-2.5375697E-001	3.939136891820283E+000
-2.5275517E-001	3.943567132508321E+000
-2.5174102E-001	3.949483906781239E+000
-2.5072154E-001	3.953950371778532E+000
-2.4965516E-001	3.959132055993436E+000
-2.4878712E-001	3.965445814861198E+000
-2.4774665E-001	3.970959989704923E+000
-2.4684045E-001	3.975720077201174E+000
-2.4573523E-001	3.980129056506698E+000
-2.4471362E-001	3.985072193658301E+000
-2.4372599E-001	3.989506578003926E+000
-2.4277596E-001	3.995430141815802E+000
-2.4178565E-001	4.000205389327462E+000
-2.4082027E-001	4.005100852913330E+000
-2.3974389E-001	4.009275755020042E+000
-2.3878127E-001	4.014400316609269E+000
-2.3780401E-001	4.019849716513242E+000
-2.3675133E-001	4.024000294826635E+000
-2.3582700E-001	4.029408110512662E+000
-2.3476845E-001	4.034354526135658E+000
-2.3373292E-001	4.038649082993791E+000
-2.3274881E-001	4.043415103797567E+000
-2.3184218E-001	4.048139660446715E+000
-2.3075800E-001	4.052959005095659E+000
-2.2974381E-001	4.058066211916781E+000
-2.2879836E-001	4.062459449525230E+000
-2.2777598E-001	4.067551558829663E+000
-2.2673288E-001	4.071448382404103E+000
-2.2578701E-001	4.075825748620215E+000
-2.2483660E-001	4.080802549952161E+000
-2.2377814E-001	4.084389110406221E+000
-2.2272938E-001	4.089410379528999E+000
-2.2175016E-001	4.092994615178291E+000
-2.2079013E-001	4.096147552684505E+000
-2.1977551E-001	4.101096191891926E+000
-2.1870467E-001	4.104217499403170E+000
-2.1777962E-001	4.110804415411408E+000
-2.1681187E-001	4.114675146010192E+000
-2.1575825E-001	4.119805869731476E+000
-2.1470143E-001	4.123780401768499E+000
-2.1376510E-001	4.128083858776989E+000
-2.1271276E-001	4.132856722692779E+000
-2.1179868E-001	4.137397269407915E+000
-2.1074824E-001	4.141039213648554E+000
-2.0970340E-001	4.144974185575965E+000
-2.0876735E-001	4.148750247226829E+000
-2.0779543E-001	4.153660701932736E+000
-2.0685250E-001	4.156289919384037E+000
-2.0581755E-001	4.160879262619531E+000
-2.0473482E-001	4.164937612083214E+000
-2.0379600E-001	4.167423324552864E+000
-2.0267741E-001	4.169992550655657E+000
-2.0180047E-001	4.175779329957797E+000
-2.0072126E-001	4.178899895268131E+000
-1.9982515E-001	4.184136774252941E+000
-1.9867331E-001	4.187390257362956E+000
-1.9777432E-001	4.191185046819331E+000
-1.9680847E-001	4.195497522751500E+000
-1.9585074E-001	4.197203218385035E+000
-1.9474550E-001	4.202326236591240E+000
-1.9381195E-001	4.205893563451607E+000
-1.9273055E-001	4.209838839592752E+000
-1.9177912E-001	4.212977301493993E+000
-1.9080253E-001	4.216583368954844E+000
-1.8979724E-001	4.220547768804771E+000
-1.8874715E-001	4.223515099534062E+000
-1.8773346E-001	4.227060396914140E+000
-1.8672754E-001	4.230277640400104E+000
-1.8578951E-001	4.232954396353215E+000
-1.8480165E-001	4.236632850435051E+000
-1.8382269E-001	4.240646382724808E+000
-1.8279427E-001	4.244045822924654E+000
-1.8175718E-001	4.246862510840081E+000
-1.8064499E-001	4.250948386059864E+000
-1.7978187E-001	4.253319773265133E+000
-1.7867775E-001	4.256730447764745E+000
-1.7773511E-001	4.259923064863791E+000
-1.7673911E-001	4.262613777761109E+000
-1.7570604E-001	4.265549720437441E+000
-1.7471069E-001	4.269348979491653E+000
-1.7376678E-001	4.272371829659853E+000
-1.7275853E-001	4.275107979222575E+000
-1.7171457E-001	4.277949186645756E+000
-1.7074670E-001	4.280349823059872E+000
-1.6964366E-001	4.283623341057051E+000
-1.6886239E-001	4.285807018341622E+000
-1.6771372E-001	4.289658444347197E+000
-1.6675659E-001	4.292797529587030E+000
-1.6579965E-001	4.295810107544192E+000
-1.6476196E-001	4.298286976637677E+000
-1.6380760E-001	4.301189847014566E+000
-1.6279073E-001	4.303183629611027E+000
-1.6169122E-001	4.307959687378684E+000
-1.6077164E-001	4.308751028445030E+000
-1.5975939E-001	4.311639377551472E+000
-1.5878782E-001	4.314214584452131E+000
-1.5779635E-001	4.317416991348608E+000
-1.5677166E-001	4.319697959234880E+000
-1.5575843E-001	4.322566924271761E+000
-1.5474361E-001	4.324401885822958E+000
-1.5369140E-001	4.325790882557897E+000
-1.5282470E-001	4.329167012263241E+000
-1.5179355E-001	4.331307370905517E+000
-1.5075532E-001	4.334013401862705E+000
-1.4978898E-001	4.336554973213751E+000
-1.4879407E-001	4.338834338166095E+000
-1.4777607E-001	4.340959631547484E+000
-1.4675850E-001	4.343831873602326E+000
-1.4578378E-001	4.345528285260556E+000
-1.4479567E-001	4.347559885473302E+000
-1.4376220E-001	4.350250164667756E+000
-1.4278620E-001	4.352144141991921E+000
-1.4176792E-001	4.354785410897314E+000
-1.4074065E-001	4.356716721698128E+000
-1.3976191E-001	4.358717935504741E+000
-1.3875432E-001	4.361303219495156E+000
-1.3771890E-001	4.363721487146847E+000
-1.3670790E-001	4.365161375315108E+000
-1.3580583E-001	4.366419468883436E+000
-1.3471690E-001	4.368914177020383E+000
-1.3379729E-001	4.370707928030590E+000
-1.3278511E-001	4.372907501562622E+000
-1.3188669E-001	4.375213003820832E+000
-1.3078213E-001	4.377703137971739E+000
-1.2981039E-001	4.378384904011710E+000
-1.2881082E-001	4.380199283361435E+000
-1.2774701E-001	4.382702334611498E+000
-1.2683541E-001	4.384067160621854E+000
-1.2579159E-001	4.385909045184121E+000
-1.2470657E-001	4.386584435348169E+000
-1.2378291E-001	4.388692501228590E+000
-1.2283053E-001	4.390733657059847E+000
-1.2175185E-001	4.393815580341538E+000
-1.2078398E-001	4.394287990218743E+000
-1.1974981E-001	4.396413219747735E+000
-1.1874877E-001	4.396550740356815E+000
-1.1768198E-001	4.398791639797167E+000
-1.1677365E-001	4.400526855278898E+000
-1.1577708E-001	4.401786460368712E+000
-1.1476204E-001	4.403760268540381E+000
-1.1375594E-001	4.403761434886189E+000
-1.1277762E-001	4.407046356575695E+000
-1.1178823E-001	4.407548345901347E+000
-1.1078232E-001	4.409896267233044E+000
-1.0977031E-001	4.410092888669610E+000
-1.0883648E-001	4.412303288225772E+000
-1.0778645E-001	4.412651161904684E+000
-1.0684486E-001	4.414755364244670E+000
-1.0574833E-001	4.414453424237394E+000
-1.0475323E-001	4.419378191784574E+000
-1.0369683E-001	4.418541082790540E+000
-1.0272446E-001	4.418608324947172E+000
-1.0178176E-001	4.418600978674721E+000
-1.0080162E-001	4.421300763424867E+000
-9.9769294E-002	4.423571932095044E+000
-9.8760217E-002	4.424584756294884E+000
-9.7757868E-002	4.425641852650344E+000
-9.6719339E-002	4.426093614763683E+000
-9.5849827E-002	4.427923831122882E+000
-9.4704829E-002	4.428688449575233E+000
-9.3713917E-002	4.430430058527875E+000
-9.2727728E-002	4.431558494214663E+000
-9.1821358E-002	4.432168413808668E+000
-9.0828978E-002	4.433839681523814E+000
-8.9782342E-002	4.434279286199143E+000
-8.8765711E-002	4.435620161974569E+000
-8.7762468E-002	4.436792441540305E+000
-8.6824022E-002	4.437261050498051E+000
-8.5770935E-002	4.438546199311981E+000
-8.4850378E-002	4.440204630847346E+000
-8.3738834E-002	4.440297268055105E+000
-8.2757063E-002	4.441049146429435E+000
-8.1849203E-002	4.443632970805517E+000
-8.0801085E-002	4.442863538309375E+000
-7.9709835E-002	4.444881086615041E+000
-7.8719474E-002	4.445037404696169E+000
-7.7771902E-002	4.446404808649319E+000
-7.6759800E-002	4.448166978631065E+000
-7.5856395E-002	4.448232808046882E+000
-7.4743792E-002	4.450299162555631E+000
-7.3822312E-002	4.449564131636393E+000
-7.2801128E-002	4.449732391922559E+000
-7.1798615E-002	4.452278740428113E+000
-7.0886597E-002	4.452232243057153E+000
-6.9810763E-002	4.454119350071323E+000
-6.8863191E-002	4.454378990111515E+000
-6.7818761E-002	4.456122026305835E+000
-6.6742130E-002	4.457131864847958E+000
-6.5850981E-002	4.456764228366032E+000
-6.4859547E-002	4.457425102034058E+000
-6.3758343E-002	4.459129813644638E+000
-6.2744163E-002	4.459329709410689E+000
-6.1738178E-002	4.460040923758839E+000
-6.0817413E-002	4.461836233183185E+000
-5.9813194E-002	4.462601575034633E+000
-5.8822908E-002	4.463615353682656E+000
-5.7756621E-002	4.463053236956940E+000
-5.6885209E-002	4.464404632095949E+000
-5.5779774E-002	4.464928110578128E+000
-5.4790445E-002	4.466040277370723E+000
-5.3809781E-002	4.467026087420948E+000
-5.2748647E-002	4.468446282840478E+000
-5.1809840E-002	4.468873360642675E+000
-5.0802868E-002	4.469322697983852E+000
-4.9833875E-002	4.470891119993254E+000
-4.8757751E-002	4.471639213186723E+000
-4.7836479E-002	4.471503630280509E+000
-4.6830572E-002	4.473429201665701E+000
-4.5796450E-002	4.474105384614727E+000
-4.4789441E-002	4.474063482293886E+000
-4.3895792E-002	4.475181043148027E+000
-4.2763878E-002	4.474792410378100E+000
-4.1861590E-002	4.476054107834841E+000
-4.0856849E-002	4.476412177085862E+000
-3.9864101E-002	4.479101602126050E+000
-3.8837459E-002	4.478836204543654E+000
-3.7757035E-002	4.479536463265063E+000
-3.6915950E-002	4.481045356503252E+000
-3.5764098E-002	4.482105894325755E+000
-3.4796588E-002	4.482607978361614E+000
-3.3798102E-002	4.483130598509760E+000
-3.2907709E-002	4.482810882564159E+000
-3.1827439E-002	4.484971004503738E+000
-3.0915292E-002	4.485231827806530E+000
-2.9808987E-002	4.486048662124965E+000
-2.8869323E-002	4.486384383506252E+000
-2.7729983E-002	4.485558978385402E+000
-2.6855724E-002	4.486476441796786E+000
-2.5773959E-002	4.487929010832758E+000
-2.4816839E-002	4.487543660733422E+000
-2.3761798E-002	4.487996422911820E+000
-2.2781052E-002	4.489135136206954E+000
-2.1844298E-002	4.490406502176223E+000
-2.0828573E-002	4.490558507688270E+000
-1.9853482E-002	4.490601609702473E+000
-1.8823178E-002	4.491361046278911E+000
-1.7825428E-002	4.492792018658996E+000
-1.6749633E-002	4.491423716699643E+000
-1.5850000E-002	4.493265637645027E+000
-1.4795072E-002	4.493830367515386E+000
-1.3734241E-002	4.494428021488361E+000
-1.2864094E-002	4.494888300145119E+000
-1.1794616E-002	4.494948840151675E+000
-1.0794792E-002	4.496662720485979E+000
-9.8094596E-003	4.496028279264777E+000
-8.8612726E-003	4.497739211176473E+000
-7.8754937E-003	4.497610055186129E+000
-6.8127359E-003	4.500082575060681E+000
-5.9553394E-003	4.499328936139264E+000
-4.8259501E-003	4.500047643427514E+000
-3.8923770E-003	4.501035793511960E+000
-2.8121697E-003	4.501457350611574E+000
-1.7738610E-003	4.502706045353859E+000
-8.5916731E-004	4.501849103856969E+000
1.8789068E-004	4.502416030487780E+000
1.1543456E-003	4.503149587247108E+000
2.1205856E-003	4.503762279395691E+000
3.2604802E-003	4.505141231798506E+000
4.1415226E-003	4.505687650155146E+000
5.1550674E-003	4.506410559018466E+000
6.1667236E-003	4.507043478820307E+000
6.7127203E-003	4.507474044958748E+000
7.1403692E-003	4.506025016307831E+000