EC-Lab ASCII FILE
Nb header lines : 63                          

Linear Sweep Voltammetry

Run on channel : 6 (SN 13765)
User : 
Electrode connection : standard
Potential control : Ewe
Ewe ctrl range : min = -2.50 V, max = 2.50 V
Ewe,I filtering : <None>
Safety Limits :
	Do not start on E overload
Channel : Floating
Acquisition started on : 07/13/2026 15:16:40.145
Technique started on : 07/13/2026 15:16:41.142
Loaded Setting File :  C:\Users\EEM-620\Desktop\Wade\20260630\LSV 1mg MoS2 1_C06.mpr
Saved on :
	File : N719_0713-a-2_C06.mpr
	Directory : C:\Users\EEM-620\Desktop\Wade\abao\20260713\
	Host : 192.109.209.200
Device : VSP-300 (SN 0025)
Address : 192.109.209.129
EC-LAB for windows v11.62 (software)
Internet server v27.00 (firmware)
Command interpretor v12.02 (firmware)
Electrode material : Au/Pd
Initial state : 
Electrolyte : NaCl (0.2M)
Comments : Fe(CN)63-/Fe(CN)64- 5.10-3 M
Cable : ULC
Reference electrode : SCE Saturated Calomel Electrode (0.241 V)
Electrode surface area : 0.001 cm2
Characteristic mass : 0.001 g
Equivalent Weight : 0.000 g/eq.
Density : 0.000 g/cm3
Volume (V) : 0.001 cm3
Cycle Definition : Charge/Discharge alternance
tR (h:m:s)          0:00:5.0000         
dER/dt (mV/h)       0.0                 
dER (mV)            0                   
dtR (s)             0.0500              
dE/dt               10.000              
dE/dt unit          mV/s                
Ei (V)              -0.800              
vs.                 Ref                 
EL (V)              0.010               
vs.                 Ref                 
record              <I>                 
dI                  0.000               
unit dI             uA                  
tI (s)              0.0000              
step percent        50                  
N                   10                  
E range min (V)     -2.500              
E range max (V)     2.500               
I Range             Auto                
I Range min         Unset               
I Range max         Unset               
I Range init        Unset               
Bandwidth           8                   

Ewe/V	<I>/mA	
-5.7358760E-001	0.000000000000000E+000
-5.7387400E-001	0.000000000000000E+000
-5.7397705E-001	0.000000000000000E+000
-5.7382053E-001	0.000000000000000E+000
-5.7382816E-001	0.000000000000000E+000
-5.7387400E-001	0.000000000000000E+000
-5.7393509E-001	0.000000000000000E+000
-5.7386637E-001	0.000000000000000E+000
-5.7366014E-001	0.000000000000000E+000
-5.7382053E-001	0.000000000000000E+000
-5.7388163E-001	0.000000000000000E+000
-5.7378620E-001	0.000000000000000E+000
-5.7386637E-001	0.000000000000000E+000
-5.7400000E-001	0.000000000000000E+000
-5.7384723E-001	0.000000000000000E+000
-5.7357234E-001	0.000000000000000E+000
-5.7365638E-001	0.000000000000000E+000
-5.7385111E-001	0.000000000000000E+000
-5.7403821E-001	0.000000000000000E+000
-5.7394272E-001	0.000000000000000E+000
-5.7400000E-001	0.000000000000000E+000
-5.7378614E-001	0.000000000000000E+000
-5.7400000E-001	0.000000000000000E+000
-5.7388163E-001	0.000000000000000E+000
-5.7374799E-001	0.000000000000000E+000
-5.7403821E-001	0.000000000000000E+000
-5.7394654E-001	0.000000000000000E+000
-5.7389307E-001	0.000000000000000E+000
-5.7380909E-001	0.000000000000000E+000
-5.7385874E-001	0.000000000000000E+000
-5.7400763E-001	0.000000000000000E+000
-5.7387400E-001	0.000000000000000E+000
-5.7390457E-001	0.000000000000000E+000
-5.7391602E-001	0.000000000000000E+000
-5.7416803E-001	0.000000000000000E+000
-5.7363343E-001	0.000000000000000E+000
-5.7400763E-001	0.000000000000000E+000
-5.7395035E-001	0.000000000000000E+000
-5.7374412E-001	0.000000000000000E+000
-5.7379764E-001	0.000000000000000E+000
-5.7360673E-001	0.000000000000000E+000
-5.7354563E-001	0.000000000000000E+000
-5.7379001E-001	0.000000000000000E+000
-5.7370979E-001	0.000000000000000E+000
-5.7369834E-001	0.000000000000000E+000
-5.7377088E-001	0.000000000000000E+000
-5.7407635E-001	0.000000000000000E+000
-5.7390451E-001	0.000000000000000E+000
-5.7424057E-001	0.000000000000000E+000
-5.7411838E-001	0.000000000000000E+000
-5.7394272E-001	0.000000000000000E+000
-5.7387400E-001	0.000000000000000E+000
-5.7401907E-001	0.000000000000000E+000
-5.7395416E-001	0.000000000000000E+000
-5.7370597E-001	0.000000000000000E+000
-5.7379001E-001	0.000000000000000E+000
-5.7370597E-001	0.000000000000000E+000
-5.7356089E-001	0.000000000000000E+000
-5.7404965E-001	0.000000000000000E+000
-5.7367164E-001	0.000000000000000E+000
-5.7377470E-001	0.000000000000000E+000
-5.7879198E-001	0.000000000000000E+000
-5.7901722E-001	0.000000000000000E+000
-7.8935933E-001	-2.560314852258433E+000
-7.8872699E-001	-2.546814693708741E+000
-7.8775519E-001	-2.525104296152240E+000
-7.8675032E-001	-2.505965273413398E+000
-7.8571635E-001	-2.487899989155199E+000
-7.8472131E-001	-2.471611712817786E+000
-7.8374666E-001	-2.456186559189248E+000
-7.8279305E-001	-2.441139261147168E+000
-7.8181463E-001	-2.426400868153120E+000
-7.8072697E-001	-2.412423791984711E+000
-7.7972859E-001	-2.398346837876112E+000
-7.7878499E-001	-2.384999435808929E+000
-7.7780300E-001	-2.371268212519311E+000
-7.7674198E-001	-2.357997600044847E+000
-7.7571517E-001	-2.344839333936026E+000
-7.7475977E-001	-2.331803013881057E+000
-7.7371532E-001	-2.318979033989579E+000
-7.7277219E-001	-2.305875564063038E+000
-7.7174628E-001	-2.292739645198541E+000
-7.7074552E-001	-2.279896420824400E+000
-7.6984686E-001	-2.267029011139162E+000
-7.6874536E-001	-2.254314349205409E+000
-7.6778477E-001	-2.241199545266699E+000
-7.6679206E-001	-2.228597406435883E+000
-7.6569051E-001	-2.215808570660922E+000
-7.6475352E-001	-2.203233794803019E+000
-7.6372796E-001	-2.190758727490907E+000
-7.6272285E-001	-2.177675538316926E+000
-7.6179397E-001	-2.165162506274839E+000
-7.6074880E-001	-2.152262033963645E+000
-7.5977516E-001	-2.139973636578624E+000
-7.5877607E-001	-2.127356607220982E+000
-7.5780749E-001	-2.114659566846163E+000
-7.5685626E-001	-2.101710727093383E+000
-7.5577527E-001	-2.089349803741236E+000
-7.5473285E-001	-2.076772526182516E+000
-7.5379121E-001	-2.064297896807442E+000
-7.5277644E-001	-2.051440710546794E+000
-7.5177157E-001	-2.039030629175684E+000
-7.5085032E-001	-2.026289056362380E+000
-7.4982738E-001	-2.013745347382848E+000
-7.4882793E-001	-2.001393242842617E+000
-7.4774182E-001	-1.988987288380699E+000
-7.4675137E-001	-1.976420699722237E+000
-7.4578893E-001	-1.963928638233078E+000
-7.4479425E-001	-1.951869562384410E+000
-7.4380875E-001	-1.938931518958675E+000
-7.4280703E-001	-1.926559277430734E+000
-7.4180877E-001	-1.913943017184849E+000
-7.4081260E-001	-1.901296961638656E+000
-7.3983997E-001	-1.889176764146050E+000
-7.3875487E-001	-1.877075739942711E+000
-7.3778605E-001	-1.864623366130726E+000
-7.3685265E-001	-1.852208066317772E+000
-7.3586076E-001	-1.839843774026269E+000
-7.3492593E-001	-1.827421872980064E+000
-7.3381925E-001	-1.814933737119041E+000
-7.3273653E-001	-1.802539033553188E+000
-7.3182458E-001	-1.790300024604355E+000
-7.3079956E-001	-1.777699102958046E+000
-7.2982043E-001	-1.765797505845584E+000
-7.2874874E-001	-1.753097927680731E+000
-7.2786540E-001	-1.740637116134170E+000
-7.2682685E-001	-1.728451430973127E+000
-7.2583818E-001	-1.716029677402094E+000
-7.2480166E-001	-1.703375140274016E+000
-7.2388434E-001	-1.691140266892095E+000
-7.2285712E-001	-1.679142150062102E+000
-7.2179377E-001	-1.666845114970652E+000
-7.2080463E-001	-1.654623097346587E+000
-7.1981186E-001	-1.642578437648446E+000
-7.1885151E-001	-1.630502172642288E+000
-7.1779668E-001	-1.618131200911169E+000
-7.1678054E-001	-1.606116735272941E+000
-7.1588445E-001	-1.593961397806801E+000
-7.1472687E-001	-1.581696374725007E+000
-7.1376699E-001	-1.569308801105731E+000
-7.1277052E-001	-1.557091779179046E+000
-7.1183127E-001	-1.545307574879374E+000
-7.1083927E-001	-1.533261810049961E+000
-7.0979941E-001	-1.521104258105709E+000
-7.0884472E-001	-1.508907110506630E+000
-7.0780391E-001	-1.497060571003846E+000
-7.0689285E-001	-1.484853057811657E+000
-7.0581412E-001	-1.472694926453030E+000
-7.0482922E-001	-1.460259754210714E+000
-7.0383739E-001	-1.448192894320798E+000
-7.0280445E-001	-1.436410028543605E+000
-7.0189482E-001	-1.424132643888402E+000
-7.0084190E-001	-1.412369407299494E+000
-6.9983101E-001	-1.400077365849123E+000
-6.9882774E-001	-1.388029206958084E+000
-6.9784456E-001	-1.376100095471841E+000
-6.9681579E-001	-1.363945826426171E+000
-6.9579077E-001	-1.352032408118251E+000
-6.9477886E-001	-1.340360486810958E+000
-6.9385821E-001	-1.328020770102732E+000
-6.9283283E-001	-1.316185720678836E+000
-6.9175857E-001	-1.304554722651288E+000
-6.9084942E-001	-1.292486317251807E+000
-6.8978578E-001	-1.280555098696993E+000
-6.8879133E-001	-1.268366967644344E+000
-6.8786943E-001	-1.257098713958708E+000
-6.8686891E-001	-1.245254052871908E+000
-6.8581820E-001	-1.233268220321161E+000
-6.8491262E-001	-1.221103293752227E+000
-6.8385071E-001	-1.209575651282513E+000
-6.8286985E-001	-1.197420944444314E+000
-6.8181026E-001	-1.185577245360170E+000
-6.8082106E-001	-1.173850417275112E+000
-6.7979717E-001	-1.162179582670611E+000
-6.7876518E-001	-1.150231371737179E+000
-6.7781270E-001	-1.138466457801831E+000
-6.7686737E-001	-1.127118250905180E+000
-6.7581916E-001	-1.115473253307519E+000
-6.7474663E-001	-1.103535851946582E+000
-6.7380553E-001	-1.091844588504916E+000
-6.7285103E-001	-1.080023068106836E+000
-6.7181164E-001	-1.068429431429614E+000
-6.7072928E-001	-1.056588037005451E+000
-6.6983098E-001	-1.044937858427012E+000
-6.6881472E-001	-1.033204813798273E+000
-6.6786069E-001	-1.021387373021696E+000
-6.6678798E-001	-1.010000698682334E+000
-6.6573757E-001	-9.982045174196932E-001
-6.6487771E-001	-9.866379710505111E-001
-6.6377831E-001	-9.750724123032022E-001
-6.6278028E-001	-9.637397833996317E-001
-6.6180503E-001	-9.522797466653010E-001
-6.6086394E-001	-9.407446011900902E-001
-6.5980542E-001	-9.290476238562047E-001
-6.5881097E-001	-9.177333713919755E-001
-6.5779847E-001	-9.059695279984563E-001
-6.5677452E-001	-8.946234220983822E-001
-6.5584618E-001	-8.827952985608469E-001
-6.5485775E-001	-8.716634455378403E-001
-6.5379739E-001	-8.599232054418948E-001
-6.5284419E-001	-8.484169627460734E-001
-6.5176576E-001	-8.368211979115443E-001
-6.5085894E-001	-8.252471935141994E-001
-6.4974433E-001	-8.142187885054142E-001
-6.4883083E-001	-8.028629543604664E-001
-6.4785796E-001	-7.914773297530671E-001
-6.4682060E-001	-7.801370741954292E-001
-6.4583874E-001	-7.686519144033950E-001
-6.4481354E-001	-7.576152727835717E-001
-6.4385015E-001	-7.461152004040716E-001
-6.4286745E-001	-7.347530379753415E-001
-6.4183670E-001	-7.239405386563771E-001
-6.4080197E-001	-7.122373617925790E-001
-6.3983327E-001	-7.010794286098723E-001
-6.3883513E-001	-6.898655389194124E-001
-6.3780987E-001	-6.784953878367794E-001
-6.3685721E-001	-6.669149793408504E-001
-6.3586426E-001	-6.554724372647414E-001
-6.3480300E-001	-6.443024746399546E-001
-6.3384676E-001	-6.335454745287148E-001
-6.3284361E-001	-6.223462639307531E-001
-6.3179857E-001	-6.114375554088900E-001
-6.3080549E-001	-6.002405166488005E-001
-6.2986684E-001	-5.890456577418002E-001
-6.2886089E-001	-5.779449461138970E-001
-6.2780809E-001	-5.666106188048889E-001
-6.2683380E-001	-5.553665748900842E-001
-6.2587011E-001	-5.443103287860931E-001
-6.2483156E-001	-5.338537077660901E-001
-6.2386066E-001	-5.226174456508881E-001
-6.2284905E-001	-5.115615780016882E-001
-6.2183207E-001	-5.006829911360029E-001
-6.2081462E-001	-4.897589789780028E-001
-6.1981094E-001	-4.786999405672168E-001
-6.1881435E-001	-4.677383991441246E-001
-6.1789787E-001	-4.572013539212296E-001
-6.1671191E-001	-4.451775454088196E-001
-6.1544216E-001	-4.328833089244597E-001
-6.1474854E-001	-4.221506983366774E-001
-6.1362976E-001	-4.110775031839258E-001
-6.1258078E-001	-4.005116028366267E-001
-6.1146945E-001	-3.892893875790637E-001
-6.1058807E-001	-3.788346982112636E-001
-6.0964751E-001	-3.676399658261640E-001
-6.0856539E-001	-3.570195719723452E-001
-6.0754782E-001	-3.457723473785093E-001
-6.0658443E-001	-3.352363050259926E-001
-6.0563248E-001	-3.247965971987172E-001
-6.0468137E-001	-3.142495993524785E-001
-6.0363978E-001	-3.034850372760393E-001
-6.0267925E-001	-2.930858760486217E-001
-6.0167474E-001	-2.819920989719247E-001
-6.0052747E-001	-2.721605395070386E-001
-5.9957218E-001	-2.613803790842248E-001
-5.9854788E-001	-2.508922542134924E-001
-5.9756434E-001	-2.404577460967827E-001
-5.9665918E-001	-2.295139924970009E-001
-5.9572065E-001	-2.189403832027765E-001
-5.9461087E-001	-2.084369723926542E-001
-5.9362549E-001	-1.979082894892792E-001
-5.9254861E-001	-1.870959009285329E-001
-5.9163582E-001	-1.768323449348961E-001
-5.9052795E-001	-1.663296532770199E-001
-5.8957094E-001	-1.560334380957540E-001
-5.8852279E-001	-1.451095742587412E-001
-5.8761173E-001	-1.346671389805634E-001
-5.8655488E-001	-1.244720387341527E-001
-5.8551347E-001	-1.141744261883472E-001
-5.8462834E-001	-1.037999191748842E-001
-5.8350492E-001	-9.356194487083069E-002
-5.8250791E-001	-8.313300590789718E-002
-5.8152807E-001	-7.269190067999742E-002
-5.8048105E-001	-6.263064658614192E-002
-5.7964456E-001	-5.257816054358089E-002
-5.7838047E-001	-4.080236177601293E-002
-5.7733649E-001	-2.872915915213525E-002
-5.7642281E-001	-1.909730017866777E-002
-5.7529902E-001	-8.817956884740838E-003
-5.7423258E-001	1.218346542381349E-003
-5.7327229E-001	1.149199634310663E-002
-5.7216543E-001	2.124157050598624E-002
-5.7124114E-001	3.180701769371008E-002
-5.7014930E-001	4.160016143891965E-002
-5.6925017E-001	5.185116060009144E-002
-5.6818575E-001	6.183568585698529E-002
-5.6719857E-001	7.169355524599619E-002
-5.6622839E-001	8.169484129865427E-002
-5.6515902E-001	9.188596247177977E-002
-5.6425178E-001	1.013714573070716E-001
-5.6297582E-001	1.130619998762592E-001
-5.6201875E-001	1.240061178837935E-001
-5.6086946E-001	1.339211509032130E-001
-5.5996495E-001	1.435068841954626E-001
-5.5893993E-001	1.535799192713092E-001
-5.5784541E-001	1.635294011479096E-001
-5.5706233E-001	1.727812623570641E-001
-5.5581951E-001	1.824762113737286E-001
-5.5493683E-001	1.921402456556809E-001
-5.5392206E-001	2.016959465971155E-001
-5.5294412E-001	2.118432456972430E-001
-5.5200511E-001	2.211630109010709E-001
-5.5085701E-001	2.309111753754598E-001
-5.4985058E-001	2.404182857945429E-001
-5.4889172E-001	2.494261970536575E-001
-5.4793793E-001	2.588210659860470E-001
-5.4691219E-001	2.684259981591308E-001
-5.4587650E-001	2.780890183316346E-001
-5.4492575E-001	2.873314258263071E-001
-5.4402328E-001	2.968999185909595E-001
-5.4293197E-001	3.060937820830278E-001
-5.4195338E-001	3.152039582944579E-001
-5.4080051E-001	3.248378861652719E-001
-5.3993142E-001	3.344988030278024E-001
-5.3892851E-001	3.435103287575416E-001
-5.3792310E-001	3.522354853469203E-001
-5.3696525E-001	3.616377238046216E-001
-5.3599542E-001	3.711272331506557E-001
-5.3499925E-001	3.799053341824745E-001
-5.3394812E-001	3.890283861094037E-001
-5.3289980E-001	3.983452731950408E-001
-5.3203958E-001	4.073410690963364E-001
-5.3088570E-001	4.160167741140839E-001
-5.2988613E-001	4.254568628276907E-001
-5.2899122E-001	4.342113870112847E-001
-5.2790123E-001	4.431956748443655E-001
-5.2700138E-001	4.519044577523550E-001
-5.2597558E-001	4.612809243874381E-001
-5.2491790E-001	4.695455896219727E-001
-5.2385771E-001	4.777992100765323E-001
-5.2297777E-001	4.866795690707297E-001
-5.2193391E-001	4.960372802559978E-001
-5.2093244E-001	5.043343980969102E-001
-5.1990175E-001	5.140854277365783E-001
-5.1882875E-001	5.223200286014194E-001
-5.1797068E-001	5.304778783271737E-001
-5.1688880E-001	5.395072006527970E-001
-5.1580679E-001	5.483488281843822E-001
-5.1491350E-001	5.566943480322752E-001
-5.1394904E-001	5.652852455896369E-001
-5.1286334E-001	5.735866908949818E-001
-5.1202691E-001	5.819693629940357E-001
-5.1084232E-001	5.908381822138562E-001
-5.1000023E-001	5.990417412723641E-001
-5.0890839E-001	6.069976550147471E-001
-5.0796276E-001	6.152305745799476E-001
-5.0693095E-001	6.236514989286666E-001
-5.0593990E-001	6.313245970479864E-001
-5.0497329E-001	6.401097573301939E-001
-5.0391454E-001	6.486996330182855E-001
-5.0301868E-001	6.565806117874615E-001
-5.0186783E-001	6.646860976222220E-001
-5.0093937E-001	6.729333453156330E-001
-5.0003386E-001	6.810152392696445E-001
-4.9898997E-001	6.892225783494905E-001
-4.9800566E-001	6.972549211371835E-001
-4.9692065E-001	7.056860422922515E-001
-4.9594486E-001	7.130149973576891E-001
-4.9487042E-001	7.207145143162323E-001
-4.9405715E-001	7.286923885759400E-001
-4.9300289E-001	7.364791599484741E-001
-4.9190360E-001	7.448375561723033E-001
-4.9080881E-001	7.525575367940753E-001
-4.8994946E-001	7.606045849555301E-001
-4.8886275E-001	7.678795543119863E-001
-4.8794115E-001	7.756730324700938E-001
-4.8672518E-001	7.831222284585255E-001
-4.8598081E-001	7.908797569021040E-001
-4.8499843E-001	7.983991877800474E-001
-4.8392799E-001	8.059381552868370E-001
-4.8297283E-001	8.134046289379961E-001
-4.8185724E-001	8.207853171420219E-001
-4.8077819E-001	8.282174171396974E-001
-4.7991946E-001	8.360160115968283E-001
-4.7891387E-001	8.430331143628749E-001
-4.7786608E-001	8.506176066067468E-001
-4.7687036E-001	8.577955199612486E-001
-4.7597116E-001	8.649297753577834E-001
-4.7485560E-001	8.717414831949588E-001
-4.7395191E-001	8.795952514089915E-001
-4.7287178E-001	8.865969611185651E-001
-4.7183365E-001	8.945720910474106E-001
-4.7091675E-001	9.008473206173480E-001
-4.6992034E-001	9.082478974235171E-001
-4.6888268E-001	9.151007384061796E-001
-4.6786317E-001	9.222334968271078E-001
-4.6695629E-001	9.289502977184023E-001
-4.6592480E-001	9.360666937298259E-001
-4.6492121E-001	9.431623518466949E-001
-4.6398577E-001	9.498002203152218E-001
-4.6279594E-001	9.566578542192765E-001
-4.6191096E-001	9.634305318748515E-001
-4.6086654E-001	9.696577986552768E-001
-4.5992896E-001	9.771343982881948E-001
-4.5890018E-001	9.837420250254656E-001
-4.5789149E-001	9.897974595063941E-001
-4.5705384E-001	9.961263751266110E-001
-4.5590177E-001	1.002589478122964E+000
-4.5486042E-001	1.008550867094176E+000
-4.5396930E-001	1.013806318381320E+000
-4.5289674E-001	1.020688523572902E+000
-4.5197728E-001	1.027822379472433E+000
-4.5092043E-001	1.034121432652078E+000
-4.4985914E-001	1.040776649696962E+000
-4.4888231E-001	1.047110312569829E+000
-4.4789186E-001	1.053665018054071E+000
-4.4696569E-001	1.059934407886534E+000
-4.4592643E-001	1.065957688774915E+000
-4.4489640E-001	1.072384554478855E+000
-4.4391105E-001	1.078702912286478E+000
-4.4274211E-001	1.084906704958791E+000
-4.4190133E-001	1.091209675426835E+000
-4.4069815E-001	1.098117182391032E+000
-4.3974084E-001	1.105825700969614E+000
-4.3874019E-001	1.112081498873454E+000
-4.3769518E-001	1.117949488821711E+000
-4.3669176E-001	1.124001820192294E+000
-4.3571314E-001	1.130014982488419E+000
-4.3478420E-001	1.136133444361754E+000
-4.3366957E-001	1.142093782761583E+000
-4.3263862E-001	1.147882087225165E+000
-4.3170914E-001	1.154240355877268E+000
-4.3067285E-001	1.160111808666477E+000
-4.2974496E-001	1.165358450539689E+000
-4.2862391E-001	1.171488166322919E+000
-4.2770642E-001	1.176756480777707E+000
-4.2672130E-001	1.182919507225355E+000
-4.2567873E-001	1.188819866835598E+000
-4.2479199E-001	1.194121874592920E+000
-4.2366835E-001	1.200125015582206E+000
-4.2275891E-001	1.205036308299073E+000
-4.2169201E-001	1.210946001250438E+000
-4.2071474E-001	1.216614590750802E+000
-4.1978258E-001	1.222245302121397E+000
-4.1874257E-001	1.227705751166297E+000
-4.1770673E-001	1.233124534151074E+000
-4.1672841E-001	1.237780914695638E+000
-4.1569704E-001	1.243344882848083E+000
-4.1479552E-001	1.248691201899893E+000
-4.1375431E-001	1.254398119309745E+000
-4.1273487E-001	1.259329579218672E+000
-4.1173807E-001	1.264679827072001E+000
-4.1072795E-001	1.270114447543351E+000
-4.0968257E-001	1.275404449000405E+000
-4.0860650E-001	1.280489599815123E+000
-4.0768638E-001	1.286600800371721E+000
-4.0670240E-001	1.291298292991192E+000
-4.0570816E-001	1.296048909149786E+000
-4.0467700E-001	1.300859797511344E+000
-4.0371752E-001	1.305482162231646E+000
-4.0264586E-001	1.309866440930855E+000
-4.0171391E-001	1.315887337386327E+000
-4.0073162E-001	1.320333011034462E+000
-3.9974946E-001	1.325380119736547E+000
-3.9870125E-001	1.330318455215166E+000
-3.9769018E-001	1.335359351364550E+000
-3.9667979E-001	1.340188622474668E+000
-3.9568973E-001	1.344936144711587E+000
-3.9464805E-001	1.350223265174364E+000
-3.9376882E-001	1.355182184527322E+000
-3.9268541E-001	1.359286039074696E+000
-3.9170438E-001	1.364669897214126E+000
-3.9066431E-001	1.369120500843831E+000
-3.8969716E-001	1.373876465397991E+000
-3.8870808E-001	1.378495707969973E+000
-3.8774943E-001	1.382745059965934E+000
-3.8670653E-001	1.387776369810402E+000
-3.8568887E-001	1.392359567047272E+000
-3.8473961E-001	1.396892235234930E+000
-3.8373131E-001	1.401707144652228E+000
-3.8269252E-001	1.406211693943654E+000
-3.8173565E-001	1.410240905428372E+000
-3.8070241E-001	1.415572000109577E+000
-3.7973380E-001	1.420018596643654E+000
-3.7867972E-001	1.424175883746805E+000
-3.7770903E-001	1.427927189409104E+000
-3.7670252E-001	1.433034251547515E+000
-3.7576365E-001	1.437566036979359E+000
-3.7478188E-001	1.442394857329351E+000
-3.7378278E-001	1.446497257384983E+000
-3.7268680E-001	1.450034605699121E+000
-3.7167296E-001	1.454550819678435E+000
-3.7072390E-001	1.459054739800866E+000
-3.6972111E-001	1.463218384803625E+000
-3.6877319E-001	1.467397854421979E+000
-3.6770701E-001	1.471648376297072E+000
-3.6671248E-001	1.476016094062619E+000
-3.6573210E-001	1.480307836913401E+000
-3.6474532E-001	1.484309856538417E+000
-3.6378324E-001	1.489090848465324E+000
-3.6267811E-001	1.493776152945227E+000
-3.6173415E-001	1.496962186500977E+000
-3.6075148E-001	1.501443808242811E+000
-3.5974121E-001	1.505380467960126E+000
-3.5874465E-001	1.509672597326620E+000
-3.5764813E-001	1.513598729980611E+000
-3.5670441E-001	1.517701182376452E+000
-3.5579142E-001	1.522000258857460E+000
-3.5480574E-001	1.525859049320722E+000
-3.5373291E-001	1.529784346344297E+000
-3.5270369E-001	1.533732745382519E+000
-3.5176697E-001	1.537643751870750E+000
-3.5070205E-001	1.541502862340877E+000
-3.4984249E-001	1.545592548256675E+000
-3.4877044E-001	1.549242795905649E+000
-3.4773585E-001	1.553567296514907E+000
-3.4667799E-001	1.557585121166928E+000
-3.4575328E-001	1.560991808775938E+000
-3.4479535E-001	1.565375366696607E+000
-3.4379515E-001	1.569081292660149E+000
-3.4273350E-001	1.574050955357272E+000
-3.4171292E-001	1.577055351601711E+000
-3.4073478E-001	1.581459595373385E+000
-3.3969390E-001	1.584758979479975E+000
-3.3877346E-001	1.588983545700715E+000
-3.3772472E-001	1.592175083855786E+000
-3.3669022E-001	1.596829794610379E+000
-3.3569065E-001	1.599789414692804E+000
-3.3472443E-001	1.604284336997395E+000
-3.3372137E-001	1.607474752786807E+000
-3.3269706E-001	1.611732981547165E+000
-3.3176014E-001	1.614235586314294E+000
-3.3073699E-001	1.618520686587068E+000
-3.2974386E-001	1.622213520937486E+000
-3.2872880E-001	1.626222451251962E+000
-3.2776031E-001	1.629737205659826E+000
-3.2678086E-001	1.633808366678378E+000
-3.2575971E-001	1.638442132208096E+000
-3.2473361E-001	1.640960347595537E+000
-3.2370120E-001	1.644627847053378E+000
-3.2267240E-001	1.648570074527359E+000
-3.2173604E-001	1.651556567116359E+000
-3.2071465E-001	1.655371278248449E+000
-3.1964406E-001	1.659039921230743E+000
-3.1881160E-001	1.663034804119671E+000
-3.1776121E-001	1.666416477274012E+000
-3.1681171E-001	1.670159576115787E+000
-3.1576085E-001	1.673679883646450E+000
-3.1476998E-001	1.676605250548434E+000
-3.1377301E-001	1.680311124633867E+000
-3.1273949E-001	1.684105354974623E+000
-3.1178111E-001	1.688443718685043E+000
-3.1077138E-001	1.691840951917342E+000
-3.0975491E-001	1.695131126401314E+000
-3.0876359E-001	1.698385714932722E+000
-3.0775550E-001	1.702252459312120E+000
-3.0680400E-001	1.705895126693783E+000
-3.0574358E-001	1.708757909359758E+000
-3.0484372E-001	1.712121319584529E+000
-3.0377439E-001	1.716516772078144E+000
-3.0281025E-001	1.719676252040597E+000
-3.0174240E-001	1.723283606292824E+000
-3.0076495E-001	1.726473731299251E+000
-2.9978681E-001	1.730094895870595E+000
-2.9877204E-001	1.732792430154582E+000
-2.9784116E-001	1.736454339215044E+000
-2.9673728E-001	1.739380797026332E+000
-2.9584503E-001	1.742624468539169E+000
-2.9474199E-001	1.746930494628579E+000
-2.9381880E-001	1.750494674124106E+000
-2.9281405E-001	1.753977702681361E+000
-2.9173401E-001	1.755953343102235E+000
-2.9080957E-001	1.760263974743857E+000
-2.8976202E-001	1.763419684997242E+000
-2.8879246E-001	1.766769898434482E+000
-2.8777149E-001	1.770067968026357E+000
-2.8669149E-001	1.773403470256028E+000
-2.8573483E-001	1.776905548517360E+000
-2.8479576E-001	1.779988353451103E+000
-2.8373846E-001	1.783883389703945E+000
-2.8278309E-001	1.786944709442281E+000
-2.8176066E-001	1.789849598926523E+000
-2.8077435E-001	1.793524777493460E+000
-2.7974606E-001	1.796263424334700E+000
-2.7873868E-001	1.799883509123774E+000
-2.7775154E-001	1.802715576334787E+000
-2.7674276E-001	1.806545183338507E+000
-2.7574494E-001	1.808855950004521E+000
-2.7482274E-001	1.812884711505420E+000
-2.7372569E-001	1.816378275829337E+000
-2.7282733E-001	1.819627715757612E+000
-2.7180943E-001	1.823128742792306E+000
-2.7078199E-001	1.826057841932332E+000
-2.6975253E-001	1.829412223288310E+000
-2.6877105E-001	1.831620265142661E+000
-2.6780054E-001	1.835502333939075E+000
-2.6682499E-001	1.837792467739838E+000
-2.6579401E-001	1.841126010072003E+000
-2.6475865E-001	1.844441017618891E+000
-2.6376903E-001	1.848217509686952E+000
-2.6278520E-001	1.851374013091668E+000
-2.6171184E-001	1.854875213294115E+000
-2.6074564E-001	1.857036636935341E+000
-2.5972563E-001	1.860529485735597E+000
-2.5874245E-001	1.863461213255384E+000
-2.5778601E-001	1.866874908407526E+000
-2.5674006E-001	1.869759715946351E+000
-2.5577438E-001	1.873293578900672E+000
-2.5477210E-001	1.876068919069237E+000
-2.5379625E-001	1.878751542795436E+000
-2.5271976E-001	1.882425664475672E+000
-2.5185916E-001	1.885450195383143E+000
-2.5077733E-001	1.888194008045346E+000
-2.4980853E-001	1.891736926579924E+000
-2.4875997E-001	1.894892568665524E+000
-2.4775322E-001	1.897607246746759E+000
-2.4686567E-001	1.900874534690828E+000
-2.4573441E-001	1.904196836054322E+000
-2.4475351E-001	1.907160229788982E+000
-2.4385282E-001	1.910256105440638E+000
-2.4284148E-001	1.912913268494368E+000
-2.4186411E-001	1.916244993055307E+000
-2.4079035E-001	1.918658050122083E+000
-2.3977284E-001	1.922088214555409E+000
-2.3878892E-001	1.924570028428683E+000
-2.3779193E-001	1.927810900189255E+000
-2.3686495E-001	1.931120425670265E+000
-2.3580152E-001	1.933857210808332E+000
-2.3472415E-001	1.936774894595139E+000
-2.3374428E-001	1.940679224647553E+000
-2.3280798E-001	1.942759734888876E+000
-2.3179044E-001	1.945839594635693E+000
-2.3080958E-001	1.947933629818912E+000
-2.2986174E-001	1.951892457902431E+000
-2.2878499E-001	1.954566498873415E+000
-2.2780964E-001	1.957587227591328E+000
-2.2679989E-001	1.960232412373578E+000
-2.2581267E-001	1.964107490800050E+000
-2.2487411E-001	1.966171110180138E+000
-2.2385111E-001	1.969238861291501E+000
-2.2277077E-001	1.972126855066536E+000
-2.2186583E-001	1.975224878978681E+000
-2.2078736E-001	1.978586748242378E+000
-2.1978293E-001	1.981831352467886E+000
-2.1871197E-001	1.983862947869454E+000
-2.1778746E-001	1.986675501145703E+000
-2.1682951E-001	1.990321530236136E+000
-2.1580830E-001	1.992764487103130E+000
-2.1477695E-001	1.996021170031138E+000
-2.1374604E-001	1.999091332433402E+000
-2.1274616E-001	2.001533736078458E+000
-2.1178403E-001	2.004381964328118E+000
-2.1070600E-001	2.007150390633834E+000
-2.0976286E-001	2.010139237735920E+000
-2.0880194E-001	2.012745212349628E+000
-2.0781282E-001	2.016510988551168E+000
-2.0681655E-001	2.019359416738553E+000
-2.0582050E-001	2.021306710938610E+000
-2.0481077E-001	2.024231954857154E+000
-2.0385517E-001	2.027394604484854E+000
-2.0280746E-001	2.029179566712292E+000
-2.0178223E-001	2.032150089188864E+000
-2.0075281E-001	2.035834757779327E+000
-1.9981751E-001	2.038403320643649E+000
-1.9879673E-001	2.041188207489476E+000
-1.9781120E-001	2.044462849441082E+000
-1.9677983E-001	2.046830428419283E+000
-1.9582379E-001	2.049701131604330E+000
-1.9481447E-001	2.051920469908136E+000
-1.9384782E-001	2.055232573438577E+000
-1.9282237E-001	2.058124837776028E+000
-1.9179232E-001	2.060677084640727E+000
-1.9077431E-001	2.063058328021459E+000
-1.8975183E-001	2.066550478615144E+000
-1.8877067E-001	2.069420741169914E+000
-1.8775298E-001	2.071423307889042E+000
-1.8685715E-001	2.074340991399900E+000
-1.8581726E-001	2.076485946305048E+000
-1.8486421E-001	2.079469738735089E+000
-1.8382692E-001	2.083719074726105E+000
-1.8276735E-001	2.085210101280035E+000
-1.8174297E-001	2.087783551602447E+000
-1.8079965E-001	2.091035812265353E+000
-1.7981920E-001	2.093520806871354E+000
-1.7875749E-001	2.096125634180176E+000
-1.7784820E-001	2.098567948543259E+000
-1.7679404E-001	2.101209085848588E+000
-1.7584606E-001	2.104248474317572E+000
-1.7488436E-001	2.107063811542343E+000
-1.7379838E-001	2.109562916060295E+000
-1.7278652E-001	2.112088276832203E+000
-1.7184497E-001	2.114233430313021E+000
-1.7081840E-001	2.117078279731446E+000
-1.6982247E-001	2.120568583408996E+000
-1.6885780E-001	2.122580131508698E+000
-1.6784120E-001	2.124905278837232E+000
-1.6683529E-001	2.127489637169568E+000
-1.6575602E-001	2.130448413005439E+000
-1.6477151E-001	2.133188468990507E+000
-1.6374777E-001	2.135416193692770E+000
-1.6285329E-001	2.137909890618420E+000
-1.6180046E-001	2.141450575656350E+000
-1.6087367E-001	2.144409338909163E+000
-1.5983358E-001	2.146189141450400E+000
-1.5883280E-001	2.150048981662155E+000
-1.5781884E-001	2.152291496594742E+000
-1.5686464E-001	2.154156014520911E+000
-1.5584603E-001	2.156733079640958E+000
-1.5486133E-001	2.158438747679753E+000
-1.5376854E-001	2.160913510357069E+000
-1.5289281E-001	2.164662675725097E+000
-1.5179801E-001	2.167222917079918E+000
-1.5082651E-001	2.169169264606055E+000
-1.4979045E-001	2.171335746292726E+000
-1.4876501E-001	2.174388136024827E+000
-1.4779690E-001	2.177352002549540E+000
-1.4677908E-001	2.179270081222068E+000
-1.4581348E-001	2.182626412974457E+000
-1.4484940E-001	2.185014028205925E+000
-1.4380717E-001	2.185997994409675E+000
-1.4281547E-001	2.191309733247323E+000
-1.4181772E-001	2.192132266009569E+000
-1.4079687E-001	2.194308296949774E+000
-1.3972117E-001	2.196248737474281E+000
-1.3884106E-001	2.199888653040997E+000
-1.3772167E-001	2.202053748899029E+000
-1.3677132E-001	2.204404434120214E+000
-1.3586551E-001	2.207422924253958E+000
-1.3481404E-001	2.209241803597507E+000
-1.3386689E-001	2.211688565435239E+000
-1.3283879E-001	2.214522586401174E+000
-1.3174351E-001	2.216988863216507E+000
-1.3074182E-001	2.218622686134443E+000
-1.2979098E-001	2.221534649307863E+000
-1.2888592E-001	2.223768918326613E+000
-1.2773471E-001	2.225770890988684E+000
-1.2684764E-001	2.228437679507159E+000
-1.2586120E-001	2.231479107229802E+000
-1.2483343E-001	2.233055065351511E+000
-1.2377631E-001	2.235831341882161E+000
-1.2277242E-001	2.237484493741288E+000
-1.2180235E-001	2.241093683849886E+000
-1.2077300E-001	2.243130219114586E+000
-1.1988726E-001	2.245185602318367E+000
-1.1879735E-001	2.248037751626086E+000
-1.1787651E-001	2.249793230059545E+000
-1.1684238E-001	2.251819781959043E+000
-1.1580869E-001	2.255785009099375E+000
-1.1485262E-001	2.257010742518069E+000
-1.1373705E-001	2.259982789832133E+000
-1.1289989E-001	2.261120876850065E+000
-1.1185208E-001	2.264526567525337E+000
-1.1086994E-001	2.267398612918676E+000
-1.0986716E-001	2.269536664279521E+000
-1.0884476E-001	2.271569292578430E+000
-1.0781954E-001	2.272747584239205E+000
-1.0678124E-001	2.275597991217577E+000
-1.0582321E-001	2.278396382100059E+000
-1.0479780E-001	2.280835160502680E+000
-1.0394635E-001	2.282072491569878E+000
-1.0278936E-001	2.284771939118709E+000
-1.0182673E-001	2.287689191599691E+000
-1.0082330E-001	2.290243348091892E+000
-9.9772699E-002	2.292098458166471E+000
-9.8829374E-002	2.294553728291277E+000
-9.7888492E-002	2.296525534567184E+000
-9.6817963E-002	2.298970870673656E+000
-9.5802732E-002	2.301050236379652E+000
-9.4868310E-002	2.302748429581304E+000
-9.3815319E-002	2.306519914832379E+000
-9.2914395E-002	2.307602705778912E+000
-9.1829211E-002	2.310403290738623E+000
-9.0818383E-002	2.312284228978340E+000
-8.9838140E-002	2.315493862110166E+000
-8.8838816E-002	2.317280587977827E+000
-8.7870859E-002	2.320002324879177E+000
-8.6846076E-002	2.321799504260223E+000
-8.5801423E-002	2.323772714528474E+000
-8.4883466E-002	2.326645077654614E+000
-8.3765991E-002	2.329479205387608E+000
-8.2780667E-002	2.330848952316741E+000
-8.1862353E-002	2.331551296567479E+000
-8.0818258E-002	2.334654401021979E+000
-7.9820842E-002	2.336200647658998E+000
-7.8891292E-002	2.339044072837737E+000
-7.7766381E-002	2.341615944548902E+000
-7.6789342E-002	2.342571475987588E+000
-7.5806759E-002	2.345335646911892E+000
-7.4893974E-002	2.347891755678031E+000
-7.3774979E-002	2.349622268881809E+000
-7.2833367E-002	2.352310021994299E+000
-7.1837433E-002	2.354263585474762E+000
-7.0781343E-002	2.356862618377384E+000
-6.9887556E-002	2.358934717873737E+000
-6.8845376E-002	2.360953623497927E+000
-6.7822769E-002	2.363138009693749E+000
-6.6843100E-002	2.366269629586633E+000
-6.5794349E-002	2.367064955333859E+000
-6.4883366E-002	2.369286515726028E+000
-6.3823260E-002	2.371261309970311E+000
-6.2854677E-002	2.371928733808019E+000
-6.1795328E-002	2.375400341593412E+000
-6.0883380E-002	2.378490006482163E+000
-5.9848409E-002	2.380502944191292E+000
-5.8840454E-002	2.382529335855637E+000
-5.7821747E-002	2.383580612639577E+000
-5.6821566E-002	2.386744203390894E+000
-5.5856247E-002	2.388003871632204E+000
-5.4801047E-002	2.390459253004309E+000
-5.3822082E-002	2.391951542485645E+000
-5.2885439E-002	2.394359836581817E+000
-5.1806867E-002	2.396372533782767E+000
-5.0872661E-002	2.398379026463729E+000
-4.9800787E-002	2.401562497595659E+000
-4.8760086E-002	2.402926885419419E+000
-4.7806785E-002	2.405242453570724E+000
-4.6828024E-002	2.407750674347952E+000
-4.5862213E-002	2.408755377210959E+000
-4.4806901E-002	2.410715557293104E+000
-4.3837462E-002	2.412547840564346E+000
-4.2915124E-002	2.414855420589461E+000
-4.1817658E-002	2.416636986927628E+000
-4.0876791E-002	2.418819674187243E+000
-3.9857313E-002	2.420606799975594E+000
-3.8774434E-002	2.422599259759032E+000
-3.7830643E-002	2.424018357914903E+000
-3.6864828E-002	2.425888048553910E+000
-3.5843320E-002	2.428070354146534E+000
-3.4858953E-002	2.432368058297371E+000
-3.3850495E-002	2.433075600752119E+000
-3.2880858E-002	2.434364373217825E+000
-3.1860106E-002	2.436931297458976E+000
-3.0883471E-002	2.437847323439744E+000
-2.9884109E-002	2.440000270237668E+000
-2.8851928E-002	2.442317689734477E+000
-2.7855987E-002	2.443671486719886E+000
-2.6874052E-002	2.445513461841266E+000
-2.5880443E-002	2.447957101795417E+000
-2.4849083E-002	2.449902800222242E+000
-2.3805879E-002	2.451670377863632E+000
-2.2844478E-002	2.453784192601837E+000
-2.1819480E-002	2.455901108406220E+000
-2.0798052E-002	2.457436056924214E+000
-1.9863028E-002	2.459785867344443E+000
-1.8842479E-002	2.461926862873405E+000
-1.7872147E-002	2.462963845048977E+000
-1.6883910E-002	2.463962755269467E+000
-1.5866971E-002	2.466671060632777E+000
-1.4821785E-002	2.468460008647746E+000
-1.3821000E-002	2.468469619475026E+000
-1.2761424E-002	2.470960113185413E+000
-1.1876237E-002	2.473153846201487E+000
-1.0889187E-002	2.476230553730758E+000
-9.7619444E-003	2.478095547744536E+000
-8.8558188E-003	2.479558301535313E+000
-7.8243716E-003	2.480497889772600E+000
-6.8277968E-003	2.482442076283476E+000
-5.8422112E-003	2.483931368766690E+000
-4.8142830E-003	2.485576413847777E+000
-3.8580128E-003	2.488250562162328E+000
-2.8464962E-003	2.489245893438682E+000
-1.8725003E-003	2.491866866747547E+000
-8.3116669E-004	2.493871754518260E+000
1.7311925E-004	2.495713038716136E+000
1.2368632E-003	2.497506175328180E+000
2.1891026E-003	2.499121705139132E+000
3.1599121E-003	2.499753278050992E+000
4.2102518E-003	2.501924009234822E+000
5.2316450E-003	2.503867896618669E+000
6.1972491E-003	2.506076312955706E+000
6.7547215E-003	2.508472392956413E+000
6.6516274E-003	2.510648131370544E+000