EC-Lab ASCII FILE
Nb header lines : 63                          

Linear Sweep Voltammetry

Run on channel : 6 (SN 13765)
User : 
Electrode connection : standard
Potential control : Ewe
Ewe ctrl range : min = -2.50 V, max = 2.50 V
Ewe,I filtering : <None>
Safety Limits :
	Do not start on E overload
Channel : Floating
Acquisition started on : 07/13/2026 14:32:56.063
Technique started on : 07/13/2026 14:32:57.060
Loaded Setting File :  C:\Users\EEM-620\Desktop\Wade\20260630\LSV 1mg MoS2 1_C06.mpr
Saved on :
	File : N719_0713-0-2_C06.mpr
	Directory : C:\Users\EEM-620\Desktop\Wade\abao\20260713\
	Host : 192.109.209.200
Device : VSP-300 (SN 0025)
Address : 192.109.209.129
EC-LAB for windows v11.62 (software)
Internet server v27.00 (firmware)
Command interpretor v12.02 (firmware)
Electrode material : Au/Pd
Initial state : 
Electrolyte : NaCl (0.2M)
Comments : Fe(CN)63-/Fe(CN)64- 5.10-3 M
Cable : ULC
Reference electrode : SCE Saturated Calomel Electrode (0.241 V)
Electrode surface area : 0.001 cm2
Characteristic mass : 0.001 g
Equivalent Weight : 0.000 g/eq.
Density : 0.000 g/cm3
Volume (V) : 0.001 cm3
Cycle Definition : Charge/Discharge alternance
tR (h:m:s)          0:00:5.0000         
dER/dt (mV/h)       0.0                 
dER (mV)            0                   
dtR (s)             0.0500              
dE/dt               10.000              
dE/dt unit          mV/s                
Ei (V)              -0.800              
vs.                 Ref                 
EL (V)              0.010               
vs.                 Ref                 
record              <I>                 
dI                  0.000               
unit dI             uA                  
tI (s)              0.0000              
step percent        50                  
N                   10                  
E range min (V)     -2.500              
E range max (V)     2.500               
I Range             Auto                
I Range min         Unset               
I Range max         Unset               
I Range init        Unset               
Bandwidth           8                   

Ewe/V	<I>/mA	
-6.7503965E-001	0.000000000000000E+000
-6.7502439E-001	0.000000000000000E+000
-6.7521912E-001	0.000000000000000E+000
-6.7504346E-001	0.000000000000000E+000
-6.7460436E-001	0.000000000000000E+000
-6.7524964E-001	0.000000000000000E+000
-6.7498237E-001	0.000000000000000E+000
-6.7499381E-001	0.000000000000000E+000
-6.7544436E-001	0.000000000000000E+000
-6.7479527E-001	0.000000000000000E+000
-6.7505109E-001	0.000000000000000E+000
-6.7513889E-001	0.000000000000000E+000
-6.7511219E-001	0.000000000000000E+000
-6.7497855E-001	0.000000000000000E+000
-6.7476851E-001	0.000000000000000E+000
-6.7500144E-001	0.000000000000000E+000
-6.7499763E-001	0.000000000000000E+000
-6.7489070E-001	0.000000000000000E+000
-6.7515802E-001	0.000000000000000E+000
-6.7523050E-001	0.000000000000000E+000
-6.7495185E-001	0.000000000000000E+000
-6.7502815E-001	0.000000000000000E+000
-6.7534512E-001	0.000000000000000E+000
-6.7502052E-001	0.000000000000000E+000
-6.7497855E-001	0.000000000000000E+000
-6.7490596E-001	0.000000000000000E+000
-6.7490214E-001	0.000000000000000E+000
-6.7473799E-001	0.000000000000000E+000
-6.7482579E-001	0.000000000000000E+000
-6.7488694E-001	0.000000000000000E+000
-6.7513126E-001	0.000000000000000E+000
-6.7501289E-001	0.000000000000000E+000
-6.7513508E-001	0.000000000000000E+000
-6.7477995E-001	0.000000000000000E+000
-6.7517710E-001	0.000000000000000E+000
-6.7539096E-001	0.000000000000000E+000
-6.7505872E-001	0.000000000000000E+000
-6.7512363E-001	0.000000000000000E+000
-6.7500913E-001	0.000000000000000E+000
-6.7513508E-001	0.000000000000000E+000
-6.7530692E-001	0.000000000000000E+000
-6.7501289E-001	0.000000000000000E+000
-6.7526495E-001	0.000000000000000E+000
-6.7511982E-001	0.000000000000000E+000
-6.7500913E-001	0.000000000000000E+000
-6.7502433E-001	0.000000000000000E+000
-6.7510837E-001	0.000000000000000E+000
-6.7530692E-001	0.000000000000000E+000
-6.7486781E-001	0.000000000000000E+000
-6.7511982E-001	0.000000000000000E+000
-6.7467690E-001	0.000000000000000E+000
-6.7480671E-001	0.000000000000000E+000
-6.7515796E-001	0.000000000000000E+000
-6.7498618E-001	0.000000000000000E+000
-6.7508543E-001	0.000000000000000E+000
-6.7521143E-001	0.000000000000000E+000
-6.7499381E-001	0.000000000000000E+000
-6.7516565E-001	0.000000000000000E+000
-6.7489457E-001	0.000000000000000E+000
-6.7489070E-001	0.000000000000000E+000
-6.7503202E-001	0.000000000000000E+000
-6.8009502E-001	0.000000000000000E+000
-6.7999196E-001	0.000000000000000E+000
-7.8915697E-001	-1.412527221700421E+000
-7.8862965E-001	-1.403071702762517E+000
-7.8766495E-001	-1.388206978638967E+000
-7.8676140E-001	-1.374330249511534E+000
-7.8569347E-001	-1.360736746600843E+000
-7.8474563E-001	-1.347303618021587E+000
-7.8373200E-001	-1.333974752989082E+000
-7.8283668E-001	-1.320929776636556E+000
-7.8166282E-001	-1.307830336193242E+000
-7.8073823E-001	-1.294578391920638E+000
-7.7974850E-001	-1.281561146368857E+000
-7.7871531E-001	-1.268617592476030E+000
-7.7769166E-001	-1.255724699408923E+000
-7.7670288E-001	-1.243016339613890E+000
-7.7570760E-001	-1.230162373019589E+000
-7.7477038E-001	-1.217448585011338E+000
-7.7376932E-001	-1.204696779802823E+000
-7.7277321E-001	-1.191916810417618E+000
-7.7177691E-001	-1.179532328413593E+000
-7.7068824E-001	-1.166398783332440E+000
-7.6974803E-001	-1.153786758581793E+000
-7.6878440E-001	-1.141010158177880E+000
-7.6775372E-001	-1.128459309646667E+000
-7.6673484E-001	-1.115990123539056E+000
-7.6574945E-001	-1.103301779539500E+000
-7.6480794E-001	-1.090513379754682E+000
-7.6371652E-001	-1.077747123246949E+000
-7.6270658E-001	-1.065171721356884E+000
-7.6171488E-001	-1.052662252503988E+000
-7.6068240E-001	-1.039875650157535E+000
-7.5972974E-001	-1.027321209372193E+000
-7.5868672E-001	-1.014626966774367E+000
-7.5780159E-001	-1.002265455270258E+000
-7.5676674E-001	-9.897208662220738E-001
-7.5573480E-001	-9.773414819628856E-001
-7.5479162E-001	-9.648212201341404E-001
-7.5371677E-001	-9.524454072009334E-001
-7.5274885E-001	-9.398846075766603E-001
-7.5173122E-001	-9.274824080919757E-001
-7.5077587E-001	-9.151261989100035E-001
-7.4983650E-001	-9.028145381145976E-001
-7.4875534E-001	-8.904555119849995E-001
-7.4783272E-001	-8.779991142624173E-001
-7.4673444E-001	-8.659356408924985E-001
-7.4576491E-001	-8.535944463478202E-001
-7.4472201E-001	-8.410962622870422E-001
-7.4385601E-001	-8.287858762950826E-001
-7.4271458E-001	-8.163645525497394E-001
-7.4182028E-001	-8.041068129499980E-001
-7.4078214E-001	-7.915439899596901E-001
-7.3981053E-001	-7.793498840182984E-001
-7.3881638E-001	-7.669307329794712E-001
-7.3780787E-001	-7.546546971770356E-001
-7.3679429E-001	-7.424718634811818E-001
-7.3582458E-001	-7.304619991756436E-001
-7.3484063E-001	-7.179082921119750E-001
-7.3382199E-001	-7.056441236701274E-001
-7.3278677E-001	-6.931063056246822E-001
-7.3176098E-001	-6.803459641696152E-001
-7.3080599E-001	-6.683147666906866E-001
-7.2984076E-001	-6.561638182111200E-001
-7.2881579E-001	-6.438068891013105E-001
-7.2777122E-001	-6.319182963558889E-001
-7.2677124E-001	-6.195412865846763E-001
-7.2581184E-001	-6.072877789675086E-001
-7.2481757E-001	-5.948221651768224E-001
-7.2379923E-001	-5.827227878625036E-001
-7.2276825E-001	-5.704821908363580E-001
-7.2185969E-001	-5.582658759559740E-001
-7.2077990E-001	-5.458238675424640E-001
-7.1976662E-001	-5.336329289194590E-001
-7.1875733E-001	-5.216532429611238E-001
-7.1775991E-001	-5.093573132371567E-001
-7.1681786E-001	-4.971629662646184E-001
-7.1580607E-001	-4.848196317476230E-001
-7.1478510E-001	-4.722336004100516E-001
-7.1379906E-001	-4.603457409474578E-001
-7.1280611E-001	-4.483941293287073E-001
-7.1169585E-001	-4.353337784394835E-001
-7.1052319E-001	-4.216269053932704E-001
-7.0943594E-001	-4.094103400440581E-001
-7.0847040E-001	-3.974590338766579E-001
-7.0750272E-001	-3.849935725814237E-001
-7.0654041E-001	-3.730772907489541E-001
-7.0552510E-001	-3.609681901073563E-001
-7.0450401E-001	-3.489076372029061E-001
-7.0355922E-001	-3.367526605048914E-001
-7.0252961E-001	-3.248878440095311E-001
-7.0146334E-001	-3.125771619034581E-001
-7.0059216E-001	-3.005352006290056E-001
-6.9954896E-001	-2.884420715962279E-001
-6.9863325E-001	-2.766071953983236E-001
-6.9747949E-001	-2.645320090662482E-001
-6.9656116E-001	-2.523753673045170E-001
-6.9559813E-001	-2.401539350825335E-001
-6.9457817E-001	-2.282288159501369E-001
-6.9348764E-001	-2.162086407619497E-001
-6.9254792E-001	-2.043598223546592E-001
-6.9152057E-001	-1.921116591856775E-001
-6.9053566E-001	-1.801652260366149E-001
-6.8948525E-001	-1.681536455742190E-001
-6.8871307E-001	-1.561520089891680E-001
-6.8745202E-001	-1.439187677611630E-001
-6.8654835E-001	-1.320999133297142E-001
-6.8556386E-001	-1.200191494650886E-001
-6.8456739E-001	-1.082210867769189E-001
-6.8347394E-001	-9.629962918417556E-002
-6.8245578E-001	-8.429879119520767E-002
-6.8157095E-001	-7.240255291711684E-002
-6.8049693E-001	-6.047494476661086E-002
-6.7944759E-001	-4.833978905077618E-002
-6.7841309E-001	-3.492521073526911E-002
-6.7720878E-001	-2.133680666426055E-002
-6.7618161E-001	-9.154187419525402E-003
-6.7521811E-001	2.758337016867118E-003
-6.7423308E-001	1.480153203872902E-002
-6.7313039E-001	2.681167523694034E-002
-6.7212474E-001	3.861066737401964E-002
-6.7124885E-001	5.047501192893816E-002
-6.7018735E-001	6.277720387065244E-002
-6.6908580E-001	7.449472731807177E-002
-6.6821522E-001	8.643732418271655E-002
-6.6720736E-001	9.828815535430752E-002
-6.6599733E-001	1.116319483793951E-001
-6.6477960E-001	1.248239765188357E-001
-6.6394019E-001	1.364326475153650E-001
-6.6292030E-001	1.481833347740271E-001
-6.6195494E-001	1.601526738720395E-001
-6.6087902E-001	1.719071861287516E-001
-6.5997082E-001	1.840086224212967E-001
-6.5882128E-001	1.956465958528739E-001
-6.5793407E-001	2.071211725059472E-001
-6.5684789E-001	2.190117111636538E-001
-6.5599012E-001	2.308404504099575E-001
-6.5481281E-001	2.426525334379193E-001
-6.5393651E-001	2.545317719793979E-001
-6.5300715E-001	2.662043252356885E-001
-6.5199447E-001	2.781117589868334E-001
-6.5081251E-001	2.896567591017600E-001
-6.4993739E-001	3.014995518639316E-001
-6.4892685E-001	3.129175301917173E-001
-6.4789635E-001	3.247867014466062E-001
-6.4687276E-001	3.366389779786383E-001
-6.4580184E-001	3.483865503911612E-001
-6.4492255E-001	3.598419396137753E-001
-6.4390218E-001	3.715633838327026E-001
-6.4287943E-001	3.831304644958851E-001
-6.4187115E-001	3.948839726616384E-001
-6.4088684E-001	4.065829082364640E-001
-6.3986564E-001	4.180593752750639E-001
-6.3887501E-001	4.299818102132402E-001
-6.3788468E-001	4.414313653784774E-001
-6.3679868E-001	4.532315379215621E-001
-6.3583338E-001	4.648247642649540E-001
-6.3476831E-001	4.763912877505530E-001
-6.3386226E-001	4.880013042302043E-001
-6.3291299E-001	4.996534619756337E-001
-6.3202786E-001	5.112289245692510E-001
-6.3093340E-001	5.223231332169636E-001
-6.2990499E-001	5.341928754415779E-001
-6.2890238E-001	5.457111123839500E-001
-6.2787133E-001	5.576606301107887E-001
-6.2683886E-001	5.691089684626567E-001
-6.2590379E-001	5.807046772135553E-001
-6.2475175E-001	5.920937554565837E-001
-6.2402564E-001	6.035039441453083E-001
-6.2282211E-001	6.146739241089705E-001
-6.2188679E-001	6.265355288568486E-001
-6.2087876E-001	6.380880597151020E-001
-6.1996520E-001	6.492912062532268E-001
-6.1878383E-001	6.606692126779636E-001
-6.1778784E-001	6.723702552693871E-001
-6.1687869E-001	6.837129588576321E-001
-6.1586344E-001	6.950271180658429E-001
-6.1503470E-001	7.064882930742034E-001
-6.1390126E-001	7.180071383438715E-001
-6.1276239E-001	7.292280404793949E-001
-6.1186057E-001	7.409408110291339E-001
-6.1083287E-001	7.523239047301047E-001
-6.0967529E-001	7.641183584928521E-001
-6.0886312E-001	7.749849862462739E-001
-6.0786963E-001	7.866801873401386E-001
-6.0679436E-001	7.976603421072168E-001
-6.0589820E-001	8.092017391428605E-001
-6.0488653E-001	8.203480476858420E-001
-6.0393935E-001	8.318782141087251E-001
-6.0283196E-001	8.430975954399464E-001
-6.0177076E-001	8.545498861758833E-001
-6.0096616E-001	8.657547511436352E-001
-5.9985191E-001	8.771463091569398E-001
-5.9879571E-001	8.885914888922812E-001
-5.9782755E-001	8.996232335490149E-001
-5.9676886E-001	9.106252767467413E-001
-5.9576076E-001	9.215702599397382E-001
-5.9492606E-001	9.337788523623232E-001
-5.9384382E-001	9.446118012785387E-001
-5.9271318E-001	9.561717234275982E-001
-5.9193105E-001	9.674188617478929E-001
-5.9082985E-001	9.783869123807865E-001
-5.8995044E-001	9.896234044874141E-001
-5.8880049E-001	1.000741449633129E+000
-5.8784986E-001	1.012117948420244E+000
-5.8687836E-001	1.023400147342020E+000
-5.8583599E-001	1.034562473633777E+000
-5.8474618E-001	1.045518000077220E+000
-5.8382720E-001	1.056837420496677E+000
-5.8292788E-001	1.067693508057683E+000
-5.8191508E-001	1.078888259089545E+000
-5.8063799E-001	1.089849922530078E+000
-5.7972425E-001	1.102654220054285E+000
-5.7860708E-001	1.115400788921571E+000
-5.7758611E-001	1.126724023095990E+000
-5.7659614E-001	1.137738914815362E+000
-5.7562441E-001	1.148840907901144E+000
-5.7466370E-001	1.159731039294491E+000
-5.7363528E-001	1.170742895310958E+000
-5.7255870E-001	1.181379927115310E+000
-5.7167792E-001	1.192970995825750E+000
-5.7064742E-001	1.203300440134143E+000
-5.6959146E-001	1.214412077985429E+000
-5.6859487E-001	1.225345744027036E+000
-5.6762964E-001	1.236673975930390E+000
-5.6666327E-001	1.247250692573960E+000
-5.6560582E-001	1.258562110640383E+000
-5.6463140E-001	1.269637080854265E+000
-5.6365091E-001	1.280604341515781E+000
-5.6264788E-001	1.291625633421873E+000
-5.6163830E-001	1.302327424750015E+000
-5.6064707E-001	1.313288706182330E+000
-5.5960190E-001	1.324041344915274E+000
-5.5865842E-001	1.334585307428895E+000
-5.5762750E-001	1.345601517569136E+000
-5.5664241E-001	1.356253397823485E+000
-5.5566299E-001	1.367234268775583E+000
-5.5470020E-001	1.378604428497729E+000
-5.5361998E-001	1.389018933116283E+000
-5.5263996E-001	1.399943302898741E+000
-5.5159545E-001	1.410875904063375E+000
-5.5061752E-001	1.421745718491302E+000
-5.4963154E-001	1.432886109263736E+000
-5.4863334E-001	1.443176652270338E+000
-5.4768509E-001	1.453934921710577E+000
-5.4665023E-001	1.464777665239382E+000
-5.4565609E-001	1.475617133632849E+000
-5.4467076E-001	1.486247954131283E+000
-5.4371983E-001	1.497288387993500E+000
-5.4269451E-001	1.507466632320920E+000
-5.4168403E-001	1.517789192221780E+000
-5.4071832E-001	1.528909376710732E+000
-5.3964925E-001	1.539867303851581E+000
-5.3862071E-001	1.550337925277378E+000
-5.3772432E-001	1.560688388206316E+000
-5.3663915E-001	1.571893143985008E+000
-5.3567922E-001	1.582657041924968E+000
-5.3468883E-001	1.592624456016733E+000
-5.3368789E-001	1.603455383468557E+000
-5.3270066E-001	1.613926815765875E+000
-5.3170228E-001	1.624343492425949E+000
-5.3074372E-001	1.634655919615867E+000
-5.2960229E-001	1.645427871357512E+000
-5.2863294E-001	1.656123474116693E+000
-5.2768040E-001	1.666210701620130E+000
-5.2668828E-001	1.677016219607101E+000
-5.2569085E-001	1.687722749528803E+000
-5.2471209E-001	1.697947632383421E+000
-5.2364278E-001	1.708549498683877E+000
-5.2269769E-001	1.718936746955947E+000
-5.2170563E-001	1.729057581336413E+000
-5.2076823E-001	1.739862072798943E+000
-5.1969212E-001	1.750583348641200E+000
-5.1868069E-001	1.760685029405135E+000
-5.1771319E-001	1.771421828755628E+000
-5.1665902E-001	1.782148127566474E+000
-5.1569545E-001	1.792443541464984E+000
-5.1471883E-001	1.802707829133229E+000
-5.1363569E-001	1.812913887702474E+000
-5.1258689E-001	1.823656727042465E+000
-5.1170397E-001	1.834155269794991E+000
-5.1069027E-001	1.844420196641477E+000
-5.0965935E-001	1.854842764083992E+000
-5.0868762E-001	1.865308008499564E+000
-5.0769484E-001	1.875597262272128E+000
-5.0670242E-001	1.885737124968458E+000
-5.0561762E-001	1.896242832440869E+000
-5.0472206E-001	1.906606144651214E+000
-5.0365931E-001	1.916270546339177E+000
-5.0276947E-001	1.926585011159688E+000
-5.0166911E-001	1.937048252533977E+000
-5.0063038E-001	1.947032016460540E+000
-4.9968719E-001	1.957358198487078E+000
-4.9869993E-001	1.967233754418514E+000
-4.9765927E-001	1.977547356651890E+000
-4.9670514E-001	1.987868955882949E+000
-4.9566251E-001	1.998000782397060E+000
-4.9472091E-001	2.007623969956686E+000
-4.9362326E-001	2.017931950362229E+000
-4.9268532E-001	2.028014140824485E+000
-4.9169844E-001	2.038295688176596E+000
-4.9069244E-001	2.048118601653936E+000
-4.8959056E-001	2.058434253765472E+000
-4.8861799E-001	2.068144830840602E+000
-4.8763958E-001	2.078683378559868E+000
-4.8672175E-001	2.088730612838706E+000
-4.8566386E-001	2.098794024851582E+000
-4.8466912E-001	2.108225830280970E+000
-4.8367518E-001	2.118548141585458E+000
-4.8265213E-001	2.128444131049839E+000
-4.8167148E-001	2.138388716160826E+000
-4.8066530E-001	2.148525901966615E+000
-4.7967830E-001	2.158700058581658E+000
-4.7863594E-001	2.168190222907025E+000
-4.7768450E-001	2.178654025826198E+000
-4.7663087E-001	2.188231475927215E+000
-4.7557619E-001	2.198099616203017E+000
-4.7459805E-001	2.207842874030266E+000
-4.7366238E-001	2.217602474545991E+000
-4.7267681E-001	2.227623684673100E+000
-4.7164461E-001	2.237453053394958E+000
-4.7068322E-001	2.246957492773177E+000
-4.6964854E-001	2.256889415044235E+000
-4.6865591E-001	2.266663776779613E+000
-4.6760249E-001	2.276460427928855E+000
-4.6661827E-001	2.285848328406928E+000
-4.6568677E-001	2.295555617246363E+000
-4.6464929E-001	2.305320337690695E+000
-4.6367943E-001	2.314870526845368E+000
-4.6261600E-001	2.324573065947600E+000
-4.6160990E-001	2.334052510283616E+000
-4.6065509E-001	2.344213539446795E+000
-4.5964858E-001	2.353600300020645E+000
-4.5857546E-001	2.363123941476701E+000
-4.5763892E-001	2.372955388139331E+000
-4.5676148E-001	2.381838497464301E+000
-4.5564380E-001	2.391696736492488E+000
-4.5465618E-001	2.401196068185556E+000
-4.5360911E-001	2.409889191940975E+000
-4.5263410E-001	2.420246086738729E+000
-4.5172369E-001	2.429682963117074E+000
-4.5073161E-001	2.439234065788767E+000
-4.4969535E-001	2.448538951023849E+000
-4.4861329E-001	2.458519423197526E+000
-4.4771895E-001	2.468588165111019E+000
-4.4665515E-001	2.477487732690797E+000
-4.4565833E-001	2.486854730308920E+000
-4.4463718E-001	2.496318049176981E+000
-4.4376448E-001	2.505960232129802E+000
-4.4268325E-001	2.515783296367107E+000
-4.4166756E-001	2.525033072465000E+000
-4.4070980E-001	2.534226927982633E+000
-4.3968675E-001	2.543249900142349E+000
-4.3867218E-001	2.552706511484246E+000
-4.3762565E-001	2.561664354229388E+000
-4.3668452E-001	2.571097606586078E+000
-4.3570444E-001	2.579873068741083E+000
-4.3466178E-001	2.589460437409443E+000
-4.3366343E-001	2.599375643388001E+000
-4.3275508E-001	2.608017885022690E+000
-4.3178540E-001	2.616888557445034E+000
-4.3069914E-001	2.626149845068102E+000
-4.2975366E-001	2.634470941015964E+000
-4.2869681E-001	2.644493527009892E+000
-4.2774650E-001	2.653260511656601E+000
-4.2672852E-001	2.662790114680924E+000
-4.2562887E-001	2.671793012430227E+000
-4.2465073E-001	2.680546329805150E+000
-4.2368153E-001	2.689497728038729E+000
-4.2269278E-001	2.698622666170678E+000
-4.2169794E-001	2.707208151618639E+000
-4.2075205E-001	2.715904009011066E+000
-4.1974154E-001	2.725239059756905E+000
-4.1877756E-001	2.734362585401085E+000
-4.1766244E-001	2.743416840279544E+000
-4.1659862E-001	2.752229391420840E+000
-4.1572627E-001	2.760682569885707E+000
-4.1472191E-001	2.769842791060597E+000
-4.1368592E-001	2.779111172937169E+000
-4.1276035E-001	2.787742251875216E+000
-4.1172454E-001	2.796674616910806E+000
-4.1061139E-001	2.805721424703989E+000
-4.0967095E-001	2.814656847605008E+000
-4.0863085E-001	2.823260705228208E+000
-4.0772501E-001	2.831644450805143E+000
-4.0664813E-001	2.840586527630137E+000
-4.0567273E-001	2.848687463612468E+000
-4.0469614E-001	2.857929567558500E+000
-4.0367046E-001	2.867236705289926E+000
-4.0264717E-001	2.876235806279709E+000
-4.0160826E-001	2.884116461177847E+000
-4.0063980E-001	2.893038472367664E+000
-3.9965704E-001	2.902031849931781E+000
-3.9867774E-001	2.910802611917094E+000
-3.9757648E-001	2.920154014671297E+000
-3.9666310E-001	2.928262977136509E+000
-3.9570284E-001	2.937161770877182E+000
-3.9469305E-001	2.945699568975854E+000
-3.9371410E-001	2.953918539539544E+000
-3.9269668E-001	2.962502842249137E+000
-3.9167377E-001	2.970660764861982E+000
-3.9061892E-001	2.979556643024637E+000
-3.8965249E-001	2.987711190010992E+000
-3.8867199E-001	2.996054628105076E+000
-3.8766119E-001	3.004879632205878E+000
-3.8668242E-001	3.013198078059609E+000
-3.8569734E-001	3.021568210036662E+000
-3.8467699E-001	3.029618636877451E+000
-3.8371503E-001	3.038297210322408E+000
-3.8272583E-001	3.046394720397608E+000
-3.8164321E-001	3.055605498728923E+000
-3.8068151E-001	3.063351863904722E+000
-3.7961310E-001	3.071462885649121E+000
-3.7870583E-001	3.079458429581589E+000
-3.7773874E-001	3.087645155772115E+000
-3.7666708E-001	3.095849955247498E+000
-3.7568960E-001	3.104268225806727E+000
-3.7469089E-001	3.112379040347108E+000
-3.7371403E-001	3.120225680371123E+000
-3.7274861E-001	3.127868115906281E+000
-3.7180445E-001	3.136372907846052E+000
-3.7064904E-001	3.144074552037111E+000
-3.6966768E-001	3.152863348021633E+000
-3.6877212E-001	3.160474079626571E+000
-3.6770618E-001	3.168410180895428E+000
-3.6670643E-001	3.177443439033603E+000
-3.6567867E-001	3.184624287817215E+000
-3.6476630E-001	3.193017354717952E+000
-3.6368865E-001	3.201406301325171E+000
-3.6270890E-001	3.208854412591025E+000
-3.6166731E-001	3.217860643510459E+000
-3.6076117E-001	3.225299748471855E+000
-3.5970327E-001	3.233238737340329E+000
-3.5869989E-001	3.241103890869369E+000
-3.5771886E-001	3.249099818718193E+000
-3.5676083E-001	3.256941630332548E+000
-3.5572204E-001	3.264705474729897E+000
-3.5468689E-001	3.272732894519571E+000
-3.5371849E-001	3.280528290404227E+000
-3.5275969E-001	3.288127874334656E+000
-3.5177857E-001	3.296084545432251E+000
-3.5071692E-001	3.303927119131430E+000
-3.4977657E-001	3.311516259555466E+000
-3.4866118E-001	3.319504339712438E+000
-3.4776726E-001	3.327397854239862E+000
-3.4666100E-001	3.334180209923687E+000
-3.4571767E-001	3.342228291992775E+000
-3.4464517E-001	3.349393325823321E+000
-3.4364834E-001	3.356283090732724E+000
-3.4278166E-001	3.363944613482587E+000
-3.4173074E-001	3.371170324307911E+000
-3.4068960E-001	3.378610158960020E+000
-3.3975813E-001	3.385700869490400E+000
-3.3874506E-001	3.393568972746531E+000
-3.3774659E-001	3.400745546376264E+000
-3.3677813E-001	3.407697813235444E+000
-3.3566117E-001	3.415781399718043E+000
-3.3474562E-001	3.422852748522057E+000
-3.3377841E-001	3.430275582210214E+000
-3.3271578E-001	3.437061698348423E+000
-3.3170623E-001	3.444279874364522E+000
-3.3072540E-001	3.451459533984561E+000
-3.2972115E-001	3.458138472504096E+000
-3.2863081E-001	3.465169379556624E+000
-3.2773161E-001	3.473336809597704E+000
-3.2674077E-001	3.480065611777496E+000
-3.2577303E-001	3.487177032563409E+000
-3.2476935E-001	3.494323572226222E+000
-3.2367575E-001	3.501036822795871E+000
-3.2268235E-001	3.508016524491488E+000
-3.2176509E-001	3.514885314069360E+000
-3.2067794E-001	3.522120346625663E+000
-3.1969601E-001	3.528370707123358E+000
-3.1867436E-001	3.536236603110147E+000
-3.1771347E-001	3.542402069325796E+000
-3.1673747E-001	3.551337500413259E+000
-3.1574780E-001	3.556991448668796E+000
-3.1461132E-001	3.563978670923804E+000
-3.1368625E-001	3.569855465933135E+000
-3.1265485E-001	3.577271534384927E+000
-3.1175971E-001	3.583913932243981E+000
-3.1076351E-001	3.591470352477515E+000
-3.0964673E-001	3.598392571947997E+000
-3.0872121E-001	3.605434960789168E+000
-3.0775198E-001	3.611924159366558E+000
-3.0675945E-001	3.618858578028510E+000
-3.0578789E-001	3.625755461277805E+000
-3.0472168E-001	3.631624886628462E+000
-3.0362526E-001	3.638659023024424E+000
-3.0272943E-001	3.644887835891176E+000
-3.0178750E-001	3.652118291045589E+000
-3.0075285E-001	3.658766440219345E+000
-2.9978299E-001	3.664728276707521E+000
-2.9867846E-001	3.671888315347882E+000
-2.9773492E-001	3.677826349382055E+000
-2.9671815E-001	3.684442915298327E+000
-2.9570305E-001	3.691026613847356E+000
-2.9478291E-001	3.697536358678768E+000
-2.9375201E-001	3.703594134361666E+000
-2.9269454E-001	3.710359796986061E+000
-2.9166615E-001	3.716968767069011E+000
-2.9074085E-001	3.723412552365552E+000
-2.8980660E-001	3.729484629225688E+000
-2.8874835E-001	3.737133627136544E+000
-2.8773373E-001	3.742890858539834E+000
-2.8663021E-001	3.748559071070268E+000
-2.8574398E-001	3.754746295787676E+000
-2.8471240E-001	3.760402384179621E+000
-2.8370506E-001	3.766301642057847E+000
-2.8273281E-001	3.772457960027239E+000
-2.8176552E-001	3.778575164852324E+000
-2.8077999E-001	3.785583122562826E+000
-2.7978915E-001	3.791343454409525E+000
-2.7866504E-001	3.797240814125097E+000
-2.7773800E-001	3.803522374505615E+000
-2.7673069E-001	3.809666567378578E+000
-2.7576464E-001	3.816324936019061E+000
-2.7478001E-001	3.821735948992760E+000
-2.7375516E-001	3.827835951690318E+000
-2.7278829E-001	3.833863357150989E+000
-2.7172914E-001	3.840222427536290E+000
-2.7065554E-001	3.845487230905789E+000
-2.6972008E-001	3.851677645135818E+000
-2.6869285E-001	3.856801180879685E+000
-2.6778781E-001	3.862936695968656E+000
-2.6670235E-001	3.869265156211654E+000
-2.6581213E-001	3.875591592554606E+000
-2.6474741E-001	3.880249739245132E+000
-2.6368484E-001	3.886273187067776E+000
-2.6274970E-001	3.892168459730648E+000
-2.6170549E-001	3.898090653949325E+000
-2.6076701E-001	3.903170082304216E+000
-2.5968966E-001	3.909003381610844E+000
-2.5871748E-001	3.913743791204926E+000
-2.5775927E-001	3.919776727755867E+000
-2.5672850E-001	3.924384757571460E+000
-2.5571755E-001	3.930859938815800E+000
-2.5476232E-001	3.935740488546870E+000
-2.5368378E-001	3.941231085380302E+000
-2.5267160E-001	3.946826626305224E+000
-2.5169009E-001	3.951866979952221E+000
-2.5073221E-001	3.958010293892272E+000
-2.4970627E-001	3.963084477517342E+000
-2.4870588E-001	3.968531226118401E+000
-2.4767390E-001	3.973705096161304E+000
-2.4671125E-001	3.978980985504609E+000
-2.4570067E-001	3.984265208244310E+000
-2.4474122E-001	3.989309062752363E+000
-2.4382713E-001	3.994124781754294E+000
-2.4279124E-001	3.999373896785121E+000
-2.4182446E-001	4.003480807498661E+000
-2.4070548E-001	4.009392172650053E+000
-2.3978639E-001	4.014360312539232E+000
-2.3877110E-001	4.018937588289941E+000
-2.3771450E-001	4.023802731876023E+000
-2.3670134E-001	4.029063348593169E+000
-2.3571180E-001	4.033233263426375E+000
-2.3466644E-001	4.038445827033783E+000
-2.3372464E-001	4.044703320231037E+000
-2.3276918E-001	4.049167216927934E+000
-2.3176537E-001	4.053667857691082E+000
-2.3072743E-001	4.058845912940562E+000
-2.2976142E-001	4.062629700810844E+000
-2.2867766E-001	4.068753334107235E+000
-2.2781612E-001	4.071590024187081E+000
-2.2671695E-001	4.076879395930845E+000
-2.2584936E-001	4.081205709113007E+000
-2.2469540E-001	4.086441421871626E+000
-2.2376351E-001	4.090066044418904E+000
-2.2271836E-001	4.094711164633438E+000
-2.2178979E-001	4.099857967857844E+000
-2.2067177E-001	4.103463800417060E+000
-2.1977468E-001	4.107041367226183E+000
-2.1871927E-001	4.110675937934673E+000
-2.1777049E-001	4.115699401056332E+000
-2.1675123E-001	4.119862598401543E+000
-2.1576470E-001	4.124310577218942E+000
-2.1477269E-001	4.128402394277089E+000
-2.1379395E-001	4.133158783117942E+000
-2.1276151E-001	4.137582751179222E+000
-2.1171486E-001	4.141831716453581E+000
-2.1075904E-001	4.144869322026232E+000
-2.0978746E-001	4.149548630968212E+000
-2.0871773E-001	4.153368856619920E+000
-2.0784950E-001	4.157712576014035E+000
-2.0674331E-001	4.162222928326102E+000
-2.0577596E-001	4.166005995538498E+000
-2.0474504E-001	4.170772613198672E+000
-2.0378231E-001	4.174067623314713E+000
-2.0267379E-001	4.178738245809512E+000
-2.0179008E-001	4.181377995897222E+000
-2.0067516E-001	4.186521113133381E+000
-1.9976088E-001	4.189486338032609E+000
-1.9877341E-001	4.193682762759693E+000
-1.9778608E-001	4.196995246972545E+000
-1.9681019E-001	4.199431469043109E+000
-1.9575019E-001	4.203393496297039E+000
-1.9479451E-001	4.207315008015815E+000
-1.9377273E-001	4.210429091144491E+000
-1.9275515E-001	4.213882414279141E+000
-1.9177347E-001	4.217584002212661E+000
-1.9081311E-001	4.220841081606025E+000
-1.8974909E-001	4.223903622892170E+000
-1.8882088E-001	4.228294815527246E+000
-1.8777099E-001	4.232343332635040E+000
-1.8678544E-001	4.235558971762670E+000
-1.8574224E-001	4.238451616542477E+000
-1.8472804E-001	4.242999900822284E+000
-1.8378599E-001	4.246762250860534E+000
-1.8275100E-001	4.250309945400595E+000
-1.8184754E-001	4.251932723102769E+000
-1.8069910E-001	4.255716866917091E+000
-1.7979226E-001	4.258303737750765E+000
-1.7871252E-001	4.263600897457863E+000
-1.7774692E-001	4.266566843920870E+000
-1.7675757E-001	4.270039536886744E+000
-1.7578219E-001	4.272894787567623E+000
-1.7474121E-001	4.275719759306973E+000
-1.7378841E-001	4.278599788193347E+000
-1.7274983E-001	4.280952346545675E+000
-1.7175794E-001	4.284227933225431E+000
-1.7078276E-001	4.287162719501353E+000
-1.6973317E-001	4.290692919934251E+000
-1.6873688E-001	4.292449055063813E+000
-1.6776314E-001	4.296329038562611E+000
-1.6674280E-001	4.300352735651842E+000
-1.6578133E-001	4.302807809519210E+000
-1.6472335E-001	4.305595054118754E+000
-1.6369684E-001	4.307998310636606E+000
-1.6270244E-001	4.310707075897300E+000
-1.6171731E-001	4.313584756520065E+000
-1.6076188E-001	4.316302792893525E+000
-1.5974793E-001	4.318854286866081E+000
-1.5875196E-001	4.321538020063322E+000
-1.5776940E-001	4.325461922420420E+000
-1.5676753E-001	4.327286083006783E+000
-1.5576266E-001	4.329176838199295E+000
-1.5476228E-001	4.331720734635994E+000
-1.5378802E-001	4.335213805574611E+000
-1.5280859E-001	4.336900187311340E+000
-1.5175092E-001	4.335980026810255E+000
-1.5073971E-001	4.338722689632139E+000
-1.4973891E-001	4.340874030634197E+000
-1.4885114E-001	4.344453755904116E+000
-1.4780678E-001	4.346748486897624E+000
-1.4676848E-001	4.348823650015738E+000
-1.4571567E-001	4.351198759343916E+000
-1.4480594E-001	4.354158910547095E+000
-1.4382713E-001	4.357029835934988E+000
-1.4278027E-001	4.359257658874562E+000
-1.4181581E-001	4.360167361575378E+000
-1.4073747E-001	4.363716179022106E+000
-1.3981876E-001	4.365631611810780E+000
-1.3875729E-001	4.367030149306553E+000
-1.3779315E-001	4.369358605256799E+000
-1.3675860E-001	4.372989639087953E+000
-1.3574418E-001	4.374424124228852E+000
-1.3475423E-001	4.375524547916886E+000
-1.3373409E-001	4.378375614682831E+000
-1.3279505E-001	4.379243012572161E+000
-1.3174838E-001	4.381413086696917E+000
-1.3067861E-001	4.383094475225178E+000
-1.2980221E-001	4.385400646052659E+000
-1.2879981E-001	4.388057739094453E+000
-1.2780768E-001	4.388278481585011E+000
-1.2679274E-001	4.390782980019694E+000
-1.2576213E-001	4.392791788887106E+000
-1.2475071E-001	4.394803639915267E+000
-1.2379923E-001	4.396535324036847E+000
-1.2272128E-001	4.399296331736782E+000
-1.2183798E-001	4.399638029160315E+000
-1.2077688E-001	4.403496218977821E+000
-1.1979371E-001	4.403269915117178E+000
-1.1873817E-001	4.405983135104194E+000
-1.1779123E-001	4.407747595998387E+000
-1.1674736E-001	4.409937906044501E+000
-1.1578662E-001	4.410377952235720E+000
-1.1479280E-001	4.412631148349440E+000
-1.1377332E-001	4.414677161861370E+000
-1.1278354E-001	4.416085363605077E+000
-1.1175323E-001	4.417801289094811E+000
-1.1074838E-001	4.419935135929684E+000
-1.0982376E-001	4.421018072642148E+000
-1.0884645E-001	4.422157829006522E+000
-1.0778221E-001	4.423752450280745E+000
-1.0677196E-001	4.425138370026538E+000
-1.0577973E-001	4.426960117287123E+000
-1.0475303E-001	4.428717458137754E+000
-1.0374320E-001	4.428848633488258E+000
-1.0279404E-001	4.431656746400748E+000
-1.0165258E-001	4.432017800984552E+000
-1.0072687E-001	4.433229319927534E+000
-9.9825941E-002	4.435553144525628E+000
-9.8793514E-002	4.435644701675137E+000
-9.7768486E-002	4.438026593040149E+000
-9.6829005E-002	4.438698382841210E+000
-9.5828392E-002	4.440660476684576E+000
-9.4769515E-002	4.440174502298454E+000
-9.3721345E-002	4.442073496403523E+000
-9.2764013E-002	4.442780133750716E+000
-9.1743499E-002	4.444921838056288E+000
-9.0779148E-002	4.445340223334448E+000
-8.9751378E-002	4.447592803725485E+000
-8.8854328E-002	4.447947490702426E+000
-8.7777108E-002	4.449192393709112E+000
-8.6715616E-002	4.450534248793588E+000
-8.5789368E-002	4.449733152746504E+000
-8.4755346E-002	4.452077446160498E+000
-8.3754532E-002	4.453455901808214E+000
-8.2742177E-002	4.453602333790474E+000
-8.1710473E-002	4.454822895151608E+000
-8.0778383E-002	4.455294623970985E+000
-7.9735301E-002	4.456087273382963E+000
-7.8835510E-002	4.458311447390798E+000
-7.7740930E-002	4.458822091972351E+000
-7.6799706E-002	4.460032025692119E+000
-7.5790852E-002	4.461012031745042E+000
-7.4748456E-002	4.462709797201335E+000
-7.3711239E-002	4.463220686432287E+000
-7.2804734E-002	4.462850923891409E+000
-7.1692340E-002	4.464662617003484E+000
-7.0730492E-002	4.466213156514115E+000
-6.9755398E-002	4.467106361080086E+000
-6.8709187E-002	4.467388004064546E+000
-6.7779541E-002	4.468335151115403E+000
-6.6789858E-002	4.469595445526978E+000
-6.5737911E-002	4.470715152444669E+000
-6.4855829E-002	4.471259166672922E+000
-6.3761108E-002	4.472182237439682E+000
-6.2791258E-002	4.473147806745999E+000
-6.1751571E-002	4.473823513615979E+000
-6.0778804E-002	4.475444742374954E+000
-5.9809808E-002	4.476217310737685E+000
-5.8791593E-002	4.475950555364321E+000
-5.7848051E-002	4.477050716126406E+000
-5.6813721E-002	4.478494066883016E+000
-5.5784084E-002	4.479685256351381E+000
-5.4730412E-002	4.479533289317743E+000
-5.3748049E-002	4.480211763470255E+000
-5.2816398E-002	4.481025811976060E+000
-5.1881749E-002	4.482044810498216E+000
-5.0832357E-002	4.482378354778987E+000
-4.9821783E-002	4.484499942541320E+000
-4.8847698E-002	4.485382883637030E+000
-4.7777720E-002	4.487455512638462E+000
-4.6821449E-002	4.487909876805951E+000
-4.5779482E-002	4.487831428095149E+000
-4.4758871E-002	4.489434778842337E+000
-4.3774456E-002	4.489405652991049E+000
-4.2807788E-002	4.490097072389386E+000
-4.1863672E-002	4.492324852612683E+000
-4.0776242E-002	4.491884181896861E+000
-3.9839916E-002	4.492386320674859E+000
-3.8745821E-002	4.495427719752563E+000
-3.7770186E-002	4.493839652449992E+000
-3.6787614E-002	4.495369293623497E+000
-3.5845246E-002	4.495587782049487E+000
-3.4785978E-002	4.495706072008177E+000
-3.3814222E-002	4.497612122032393E+000
-3.2845214E-002	4.497886196949066E+000
-3.1906135E-002	4.498014543343487E+000
-3.0797772E-002	4.496317705622417E+000
-2.9791655E-002	4.499289374271484E+000
-2.8873775E-002	4.500771085421245E+000
-2.7818019E-002	4.501258710468235E+000
-2.6816659E-002	4.502613672839885E+000
-2.5842898E-002	4.502555843856622E+000
-2.4808565E-002	4.502812807758641E+000
-2.3848977E-002	4.504304765613156E+000
-2.2845538E-002	4.504463344812407E+000
-2.1866359E-002	4.504945199246755E+000
-2.0782450E-002	4.504395873318394E+000
-1.9768842E-002	4.506282781561207E+000
-1.8813631E-002	4.506683354024535E+000
-1.7836627E-002	4.505758748553661E+000
-1.6889000E-002	4.508063348355105E+000
-1.5843637E-002	4.507737187875673E+000
-1.4814666E-002	4.508378469712387E+000
-1.3814637E-002	4.508485365245086E+000
-1.2839274E-002	4.509782888271197E+000
-1.1816150E-002	4.510623925780215E+000
-1.0871582E-002	4.510275446706359E+000
-9.7528221E-003	4.511715465121792E+000
-8.7506874E-003	4.512248504457526E+000
-7.8470688E-003	4.512796275593587E+000
-6.8479488E-003	4.513191126011030E+000
-5.8345785E-003	4.514412869421039E+000
-4.9178014E-003	4.514480470507209E+000
-3.8486791E-003	4.516442818774117E+000
-2.8780203E-003	4.514769649994093E+000
-1.8268927E-003	4.517470019835002E+000
-8.2840893E-004	4.516078585827806E+000
1.8927257E-004	4.519655113987888E+000
1.2143777E-003	4.519392563788969E+000
2.1801933E-003	4.520059551353803E+000
3.1852452E-003	4.521499650294295E+000
4.1126730E-003	4.520997455274617E+000
5.2367365E-003	4.521309849288736E+000
6.1682877E-003	4.521631374081210E+000
6.6401726E-003	4.522817730903625E+000
6.7127203E-003	4.520805716514587E+000