EC-Lab ASCII FILE
Nb header lines : 63                          

Linear Sweep Voltammetry

Run on channel : 6 (SN 13765)
User : 
Electrode connection : standard
Potential control : Ewe
Ewe ctrl range : min = -2.50 V, max = 2.50 V
Ewe,I filtering : <None>
Safety Limits :
	Do not start on E overload
Channel : Floating
Acquisition started on : 07/13/2026 15:53:45.991
Technique started on : 07/13/2026 15:53:46.988
Loaded Setting File :  C:\Users\EEM-620\Desktop\Wade\20260630\LSV 1mg MoS2 1_C06.mpr
Saved on :
	File : N719_0713-e-1_C06.mpr
	Directory : C:\Users\EEM-620\Desktop\Wade\abao\20260713\
	Host : 192.109.209.200
Device : VSP-300 (SN 0025)
Address : 192.109.209.129
EC-LAB for windows v11.62 (software)
Internet server v27.00 (firmware)
Command interpretor v12.02 (firmware)
Electrode material : Au/Pd
Initial state : 
Electrolyte : NaCl (0.2M)
Comments : Fe(CN)63-/Fe(CN)64- 5.10-3 M
Cable : ULC
Reference electrode : SCE Saturated Calomel Electrode (0.241 V)
Electrode surface area : 0.001 cm2
Characteristic mass : 0.001 g
Equivalent Weight : 0.000 g/eq.
Density : 0.000 g/cm3
Volume (V) : 0.001 cm3
Cycle Definition : Charge/Discharge alternance
tR (h:m:s)          0:00:5.0000         
dER/dt (mV/h)       0.0                 
dER (mV)            0                   
dtR (s)             0.0500              
dE/dt               10.000              
dE/dt unit          mV/s                
Ei (V)              -0.800              
vs.                 Ref                 
EL (V)              0.010               
vs.                 Ref                 
record              <I>                 
dI                  0.000               
unit dI             uA                  
tI (s)              0.0000              
step percent        50                  
N                   10                  
E range min (V)     -2.500              
E range max (V)     2.500               
I Range             Auto                
I Range min         Unset               
I Range max         Unset               
I Range init        Unset               
Bandwidth           8                   

Ewe/V	<I>/mA	
-2.6103362E-001	0.000000000000000E+000
-2.6077396E-001	0.000000000000000E+000
-2.6081598E-001	0.000000000000000E+000
-2.6060596E-001	0.000000000000000E+000
-2.6055634E-001	0.000000000000000E+000
-2.6093435E-001	0.000000000000000E+000
-2.6076251E-001	0.000000000000000E+000
-2.6060215E-001	0.000000000000000E+000
-2.6089615E-001	0.000000000000000E+000
-2.6087326E-001	0.000000000000000E+000
-2.6077780E-001	0.000000000000000E+000
-2.6054105E-001	0.000000000000000E+000
-2.6085415E-001	0.000000000000000E+000
-2.6085415E-001	0.000000000000000E+000
-2.6083505E-001	0.000000000000000E+000
-2.6056397E-001	0.000000000000000E+000
-2.6052958E-001	0.000000000000000E+000
-2.6068234E-001	0.000000000000000E+000
-2.6066706E-001	0.000000000000000E+000
-2.6038069E-001	0.000000000000000E+000
-2.6059833E-001	0.000000000000000E+000
-2.6055631E-001	0.000000000000000E+000
-2.6076633E-001	0.000000000000000E+000
-2.6049906E-001	0.000000000000000E+000
-2.6086941E-001	0.000000000000000E+000
-2.6063651E-001	0.000000000000000E+000
-2.6116726E-001	0.000000000000000E+000
-2.6065180E-001	0.000000000000000E+000
-2.6117870E-001	0.000000000000000E+000
-2.6102981E-001	0.000000000000000E+000
-2.6093054E-001	0.000000000000000E+000
-2.6091525E-001	0.000000000000000E+000
-2.6073578E-001	0.000000000000000E+000
-2.6109090E-001	0.000000000000000E+000
-2.6086178E-001	0.000000000000000E+000
-2.6084271E-001	0.000000000000000E+000
-2.6119781E-001	0.000000000000000E+000
-2.6073578E-001	0.000000000000000E+000
-2.6041505E-001	0.000000000000000E+000
-2.6105270E-001	0.000000000000000E+000
-2.6140016E-001	0.000000000000000E+000
-2.6127416E-001	0.000000000000000E+000
-2.6073197E-001	0.000000000000000E+000
-2.6103362E-001	0.000000000000000E+000
-2.6085034E-001	0.000000000000000E+000
-2.6138109E-001	0.000000000000000E+000
-2.6109469E-001	0.000000000000000E+000
-2.6099545E-001	0.000000000000000E+000
-2.6094198E-001	0.000000000000000E+000
-2.6077396E-001	0.000000000000000E+000
-2.6117489E-001	0.000000000000000E+000
-2.6096106E-001	0.000000000000000E+000
-2.6106417E-001	0.000000000000000E+000
-2.6123980E-001	0.000000000000000E+000
-2.6080450E-001	0.000000000000000E+000
-2.6100308E-001	0.000000000000000E+000
-2.6070905E-001	0.000000000000000E+000
-2.6084271E-001	0.000000000000000E+000
-2.6101834E-001	0.000000000000000E+000
-2.6067087E-001	0.000000000000000E+000
-2.6081598E-001	0.000000000000000E+000
-2.6579502E-001	0.000000000000000E+000
-2.6589048E-001	0.000000000000000E+000
-7.8934026E-001	-4.338740214057594E+000
-7.8880286E-001	-4.309270039420582E+000
-7.8781313E-001	-4.271550807136080E+000
-7.8679788E-001	-4.243393378677194E+000
-7.8578722E-001	-4.220328962289997E+000
-7.8479719E-001	-4.200860039503482E+000
-7.8377467E-001	-4.183732139843485E+000
-7.8274304E-001	-4.168328710814947E+000
-7.8183752E-001	-4.154513296153809E+000
-7.8076684E-001	-4.142025406161949E+000
-7.7986467E-001	-4.130083682504875E+000
-7.7882713E-001	-4.118530134911879E+000
-7.7784753E-001	-4.107760114250382E+000
-7.7682799E-001	-4.097236737883520E+000
-7.7582067E-001	-4.087148763515344E+000
-7.7478462E-001	-4.077188475264450E+000
-7.7386904E-001	-4.067508806220275E+000
-7.7283788E-001	-4.058020237419370E+000
-7.7183253E-001	-4.048721766582235E+000
-7.7084166E-001	-4.039474582171714E+000
-7.6981026E-001	-4.030092562790273E+000
-7.6886159E-001	-4.021184507895413E+000
-7.6785225E-001	-4.012040084256828E+000
-7.6681864E-001	-4.003089094603524E+000
-7.6580030E-001	-3.993939628755594E+000
-7.6478976E-001	-3.985115340123880E+000
-7.6380634E-001	-3.976618355071103E+000
-7.6275444E-001	-3.967807067765134E+000
-7.6188070E-001	-3.959027255646848E+000
-7.6076132E-001	-3.950300258066907E+000
-7.5987321E-001	-3.941516065487150E+000
-7.5889975E-001	-3.932881505904945E+000
-7.5787836E-001	-3.924332312963621E+000
-7.5681871E-001	-3.915476074373290E+000
-7.5597250E-001	-3.906720321823443E+000
-7.5483900E-001	-3.898228065835085E+000
-7.5392312E-001	-3.889583604758702E+000
-7.5285149E-001	-3.881176351397123E+000
-7.5199282E-001	-3.872724251614667E+000
-7.5092483E-001	-3.864381830592578E+000
-7.4983418E-001	-3.855722641503373E+000
-7.4879241E-001	-3.847162241185139E+000
-7.4780917E-001	-3.838604914381527E+000
-7.4689561E-001	-3.830114469484030E+000
-7.4591470E-001	-3.821460083127036E+000
-7.4485314E-001	-3.813244662800606E+000
-7.4384052E-001	-3.804948768681946E+000
-7.4285132E-001	-3.796429286400482E+000
-7.4193722E-001	-3.787857494994601E+000
-7.4082899E-001	-3.779498204588876E+000
-7.3984659E-001	-3.770928706835804E+000
-7.3880756E-001	-3.762397188358406E+000
-7.3793000E-001	-3.754256290418134E+000
-7.3679900E-001	-3.745791779072164E+000
-7.3583341E-001	-3.737323237898853E+000
-7.3492426E-001	-3.728949465133539E+000
-7.3378617E-001	-3.720367933313069E+000
-7.3283774E-001	-3.712077893100066E+000
-7.3194361E-001	-3.703918782097325E+000
-7.3079705E-001	-3.695716274557299E+000
-7.2983301E-001	-3.687225847566268E+000
-7.2885519E-001	-3.678862432086923E+000
-7.2785294E-001	-3.670525058552057E+000
-7.2692704E-001	-3.662287595375474E+000
-7.2598672E-001	-3.653967269040905E+000
-7.2485983E-001	-3.645663107986820E+000
-7.2387266E-001	-3.637371682411001E+000
-7.2285563E-001	-3.629120481235013E+000
-7.2191954E-001	-3.621054402104134E+000
-7.2091299E-001	-3.612577575343096E+000
-7.1986592E-001	-3.604059409764069E+000
-7.1890843E-001	-3.595695681594027E+000
-7.1787542E-001	-3.587642979572458E+000
-7.1686405E-001	-3.579213699808840E+000
-7.1593469E-001	-3.571034536869433E+000
-7.1484846E-001	-3.562665719491180E+000
-7.1387076E-001	-3.554516474405929E+000
-7.1284932E-001	-3.546121016696645E+000
-7.1190667E-001	-3.537860485452910E+000
-7.1084416E-001	-3.529747684244757E+000
-7.0984948E-001	-3.521201231413414E+000
-7.0883816E-001	-3.512668748945309E+000
-7.0789510E-001	-3.504871525146342E+000
-7.0691770E-001	-3.496617959605317E+000
-7.0579642E-001	-3.488437803507537E+000
-7.0493180E-001	-3.480181031756928E+000
-7.0393789E-001	-3.471981899053972E+000
-7.0282298E-001	-3.463793862240109E+000
-7.0187771E-001	-3.455377410959315E+000
-7.0085871E-001	-3.447227771083504E+000
-6.9983673E-001	-3.439056798018271E+000
-6.9887286E-001	-3.430780261203097E+000
-6.9787401E-001	-3.422723871138373E+000
-6.9681680E-001	-3.414383911568189E+000
-6.9586152E-001	-3.406329290182512E+000
-6.9492650E-001	-3.398081555962564E+000
-6.9387686E-001	-3.389914533294345E+000
-6.9284362E-001	-3.381688203524675E+000
-6.9185930E-001	-3.373373751287103E+000
-6.9093895E-001	-3.365411304669289E+000
-6.8995059E-001	-3.357330232858644E+000
-6.8883783E-001	-3.348976141650423E+000
-6.8786901E-001	-3.340819926173580E+000
-6.8688625E-001	-3.332664490849877E+000
-6.8584251E-001	-3.324410588518866E+000
-6.8494123E-001	-3.316352673150874E+000
-6.8394786E-001	-3.308053844504883E+000
-6.8290716E-001	-3.300390063951589E+000
-6.8189001E-001	-3.291863407801703E+000
-6.8084002E-001	-3.283865443534319E+000
-6.7986077E-001	-3.275578630980704E+000
-6.7886353E-001	-3.267474624845722E+000
-6.7785704E-001	-3.259325324385262E+000
-6.7694032E-001	-3.251217226091171E+000
-6.7585814E-001	-3.243023811115151E+000
-6.7492032E-001	-3.234755146282694E+000
-6.7379344E-001	-3.226661496569267E+000
-6.7287266E-001	-3.218590266726619E+000
-6.7193091E-001	-3.210380675616108E+000
-6.7082965E-001	-3.202412168489378E+000
-6.6986245E-001	-3.194071888923645E+000
-6.6885352E-001	-3.186039672957526E+000
-6.6779691E-001	-3.178159090982284E+000
-6.6685420E-001	-3.169957662070209E+000
-6.6585469E-001	-3.161820541929316E+000
-6.6490036E-001	-3.153782035323466E+000
-6.6386467E-001	-3.145349335891233E+000
-6.6289103E-001	-3.137240148804807E+000
-6.6196883E-001	-3.129222985873739E+000
-6.6077846E-001	-3.121191958862321E+000
-6.6000611E-001	-3.113264702812401E+000
-6.5882933E-001	-3.105231200242621E+000
-6.5791267E-001	-3.097185929892248E+000
-6.5688908E-001	-3.088989425588522E+000
-6.5589345E-001	-3.081087595896586E+000
-6.5489358E-001	-3.073050481853654E+000
-6.5394604E-001	-3.065170653716294E+000
-6.5280735E-001	-3.056937307429116E+000
-6.5187585E-001	-3.048746915603132E+000
-6.5083748E-001	-3.040603764631143E+000
-6.4990735E-001	-3.032409785807261E+000
-6.4893013E-001	-3.024340678696287E+000
-6.4782637E-001	-3.016203770482967E+000
-6.4694667E-001	-3.008198616307936E+000
-6.4588749E-001	-3.000203968198200E+000
-6.4489460E-001	-2.992304957575264E+000
-6.4390147E-001	-2.984332842661249E+000
-6.4284736E-001	-2.976401666524225E+000
-6.4187348E-001	-2.968474081820915E+000
-6.4086896E-001	-2.960233679292393E+000
-6.3996041E-001	-2.952565596059522E+000
-6.3888377E-001	-2.944264307894102E+000
-6.3789886E-001	-2.936063197813638E+000
-6.3692093E-001	-2.928370308268960E+000
-6.3592017E-001	-2.920124558938873E+000
-6.3481057E-001	-2.912358651326237E+000
-6.3393158E-001	-2.904263863960907E+000
-6.3286972E-001	-2.896632517929426E+000
-6.3190508E-001	-2.888249705986453E+000
-6.3085216E-001	-2.880157853994092E+000
-6.2995780E-001	-2.872039581890460E+000
-6.2889129E-001	-2.864107376603399E+000
-6.2790215E-001	-2.856306630152247E+000
-6.2687904E-001	-2.848654831449181E+000
-6.2592274E-001	-2.840231428795675E+000
-6.2492383E-001	-2.832246175794694E+000
-6.2390196E-001	-2.824179738519497E+000
-6.2298560E-001	-2.816260989065526E+000
-6.2197149E-001	-2.808200314916945E+000
-6.2098980E-001	-2.800284974463885E+000
-6.1993736E-001	-2.792076672116920E+000
-6.1892408E-001	-2.784414778153103E+000
-6.1794013E-001	-2.776310681405004E+000
-6.1679405E-001	-2.768505381765188E+000
-6.1582422E-001	-2.760417633310503E+000
-6.1497080E-001	-2.752571557952185E+000
-6.1392677E-001	-2.744375542634067E+000
-6.1290491E-001	-2.736465521984641E+000
-6.1190748E-001	-2.728543251577790E+000
-6.1085963E-001	-2.720671373936860E+000
-6.0986090E-001	-2.712676830313825E+000
-6.0899401E-001	-2.704752030855047E+000
-6.0793054E-001	-2.696974679551722E+000
-6.0689175E-001	-2.688962708744741E+000
-6.0591143E-001	-2.681005505652374E+000
-6.0495585E-001	-2.673315272838970E+000
-6.0393888E-001	-2.665207920251067E+000
-6.0291094E-001	-2.657203264812239E+000
-6.0189527E-001	-2.648887367160230E+000
-6.0089898E-001	-2.641169132733793E+000
-5.9992450E-001	-2.633137395961434E+000
-5.9897602E-001	-2.625436272058217E+000
-5.9793210E-001	-2.617455483310753E+000
-5.9691137E-001	-2.609588541404328E+000
-5.9594512E-001	-2.601796896645318E+000
-5.9495980E-001	-2.593877324903450E+000
-5.9390157E-001	-2.585682695799889E+000
-5.9285909E-001	-2.577887073987053E+000
-5.9193182E-001	-2.570050901836819E+000
-5.9095353E-001	-2.562125180714927E+000
-5.8988249E-001	-2.554035391244625E+000
-5.8898586E-001	-2.546373383314512E+000
-5.8786792E-001	-2.538385109389793E+000
-5.8698040E-001	-2.530675667855478E+000
-5.8586991E-001	-2.522712649846515E+000
-5.8492291E-001	-2.514559299320332E+000
-5.8398855E-001	-2.506892672843405E+000
-5.8290458E-001	-2.498998449908353E+000
-5.8200926E-001	-2.490992490513740E+000
-5.8100599E-001	-2.483304560460432E+000
-5.7994920E-001	-2.475379175885951E+000
-5.7896084E-001	-2.467566249513411E+000
-5.7802886E-001	-2.459947562052138E+000
-5.7697034E-001	-2.452070540024174E+000
-5.7587343E-001	-2.444225036843687E+000
-5.7490361E-001	-2.436028169261100E+000
-5.7393587E-001	-2.428446584277676E+000
-5.7295567E-001	-2.420443511206219E+000
-5.7193929E-001	-2.412783540233420E+000
-5.7094216E-001	-2.405135688130503E+000
-5.6991404E-001	-2.397163547334266E+000
-5.6890440E-001	-2.389200024306781E+000
-5.6785101E-001	-2.381545468337009E+000
-5.6697440E-001	-2.372907944565910E+000
-5.6588984E-001	-2.365116657482261E+000
-5.6492972E-001	-2.357827408722150E+000
-5.6399173E-001	-2.349936555537148E+000
-5.6289864E-001	-2.342365283105112E+000
-5.6197929E-001	-2.334751449991181E+000
-5.6090188E-001	-2.326871829728287E+000
-5.5988091E-001	-2.318967181223414E+000
-5.5894971E-001	-2.311111609484932E+000
-5.5789673E-001	-2.303537803943509E+000
-5.5699384E-001	-2.295696708891112E+000
-5.5604696E-001	-2.287937006998646E+000
-5.5494279E-001	-2.279879388157973E+000
-5.5394495E-001	-2.272348241673576E+000
-5.5296433E-001	-2.264569473110377E+000
-5.5198407E-001	-2.256239345228231E+000
-5.5102396E-001	-2.248720433976901E+000
-5.4998922E-001	-2.241068285359376E+000
-5.4881781E-001	-2.233367035510376E+000
-5.4789382E-001	-2.225361026271607E+000
-5.4692948E-001	-2.217462991743517E+000
-5.4596752E-001	-2.209792817632351E+000
-5.4493636E-001	-2.202090730821648E+000
-5.4397959E-001	-2.194560980451762E+000
-5.4296464E-001	-2.186618063184948E+000
-5.4190522E-001	-2.179171136959841E+000
-5.4099125E-001	-2.171378623267683E+000
-5.3993797E-001	-2.163568249179257E+000
-5.3890008E-001	-2.155870396505893E+000
-5.3797418E-001	-2.147907269053047E+000
-5.3696120E-001	-2.140264548913198E+000
-5.3588462E-001	-2.132704792475259E+000
-5.3495699E-001	-2.125034891444344E+000
-5.3399336E-001	-2.117323185282729E+000
-5.3292000E-001	-2.109791957945742E+000
-5.3194886E-001	-2.101756141264524E+000
-5.3096288E-001	-2.093338439310035E+000
-5.2992368E-001	-2.086165229755427E+000
-5.2898538E-001	-2.078912561361641E+000
-5.2798396E-001	-2.071156712869799E+000
-5.2691865E-001	-2.063602451097077E+000
-5.2599961E-001	-2.055984098614189E+000
-5.2489138E-001	-2.048341265431155E+000
-5.2392346E-001	-2.040147280251537E+000
-5.2289313E-001	-2.032590104763667E+000
-5.2194023E-001	-2.025109587168259E+000
-5.2090591E-001	-2.017102789271767E+000
-5.1990467E-001	-2.009501922925066E+000
-5.1896709E-001	-2.001951208821048E+000
-5.1801759E-001	-1.994315589743632E+000
-5.1692450E-001	-1.986752985474646E+000
-5.1599956E-001	-1.978889865455805E+000
-5.1509339E-001	-1.971312938189058E+000
-5.1394773E-001	-1.963630036345677E+000
-5.1293266E-001	-1.956132946742905E+000
-5.1198888E-001	-1.948251468715842E+000
-5.1095897E-001	-1.940727330836378E+000
-5.0994617E-001	-1.933067314050813E+000
-5.0891793E-001	-1.925412497034785E+000
-5.0790316E-001	-1.917267935340616E+000
-5.0684416E-001	-1.909755773290431E+000
-5.0591230E-001	-1.902277983725071E+000
-5.0493681E-001	-1.894600918619506E+000
-5.0402927E-001	-1.886890114733461E+000
-5.0301105E-001	-1.879436894423435E+000
-5.0190645E-001	-1.871604985783460E+000
-5.0100005E-001	-1.864079207733823E+000
-4.9999538E-001	-1.856428944126318E+000
-4.9895388E-001	-1.848750613857774E+000
-4.9797425E-001	-1.841331046764495E+000
-4.9692765E-001	-1.833444956000197E+000
-4.9593022E-001	-1.826151672024846E+000
-4.9490410E-001	-1.818687263462273E+000
-4.9391460E-001	-1.810731608038832E+000
-4.9292859E-001	-1.803145156966321E+000
-4.9187917E-001	-1.795474899863754E+000
-4.9091744E-001	-1.788015025707560E+000
-4.8996922E-001	-1.780305165107603E+000
-4.8896715E-001	-1.773103833750447E+000
-4.8794332E-001	-1.765177790748787E+000
-4.8699221E-001	-1.757610478059007E+000
-4.8595998E-001	-1.750118728313185E+000
-4.8493001E-001	-1.742773034945181E+000
-4.8394823E-001	-1.734808898634373E+000
-4.8295718E-001	-1.727466886518169E+000
-4.8198014E-001	-1.719846874143361E+000
-4.8101664E-001	-1.712646917060574E+000
-4.7997779E-001	-1.704887812336281E+000
-4.7889850E-001	-1.697565014757181E+000
-4.7798806E-001	-1.689793667583551E+000
-4.7699589E-001	-1.682167809594560E+000
-4.7598106E-001	-1.675060155987405E+000
-4.7495630E-001	-1.667450001394300E+000
-4.7395298E-001	-1.660069472259940E+000
-4.7291473E-001	-1.652120411843093E+000
-4.7195008E-001	-1.644583721403720E+000
-4.7103664E-001	-1.636994848372758E+000
-4.6992150E-001	-1.629815709828372E+000
-4.6898746E-001	-1.622271629671252E+000
-4.6801230E-001	-1.614649342993893E+000
-4.6692169E-001	-1.607076481746073E+000
-4.6592778E-001	-1.599764881310644E+000
-4.6493924E-001	-1.592169944610859E+000
-4.6396950E-001	-1.584622696598064E+000
-4.6299699E-001	-1.577096774898187E+000
-4.6193427E-001	-1.569465417276930E+000
-4.6101946E-001	-1.561781312306810E+000
-4.5993024E-001	-1.554664161194252E+000
-4.5898867E-001	-1.547001965895845E+000
-4.5791233E-001	-1.539473960966532E+000
-4.5698169E-001	-1.532106242246101E+000
-4.5596430E-001	-1.524818005109282E+000
-4.5501301E-001	-1.517281219363454E+000
-4.5394892E-001	-1.509874342216385E+000
-4.5287982E-001	-1.502093362311520E+000
-4.5197231E-001	-1.494971230269229E+000
-4.5098448E-001	-1.487393777265595E+000
-4.4991642E-001	-1.479685022323224E+000
-4.4895554E-001	-1.472321694850343E+000
-4.4800723E-001	-1.464908446012824E+000
-4.4691944E-001	-1.457024874372610E+000
-4.4589320E-001	-1.449981906208480E+000
-4.4482574E-001	-1.442326840565165E+000
-4.4384465E-001	-1.435087525044331E+000
-4.4290969E-001	-1.427541554273077E+000
-4.4193506E-001	-1.420070654264202E+000
-4.4092748E-001	-1.412586770261875E+000
-4.3984255E-001	-1.405100494997384E+000
-4.3889382E-001	-1.397655826199935E+000
-4.3796769E-001	-1.390222641466940E+000
-4.3691778E-001	-1.382628088842551E+000
-4.3591914E-001	-1.375406655448458E+000
-4.3499702E-001	-1.367389079459287E+000
-4.3394485E-001	-1.360349972376927E+000
-4.3304014E-001	-1.353378573639525E+000
-4.3196848E-001	-1.346141675556146E+000
-4.3095008E-001	-1.338814458685313E+000
-4.3004361E-001	-1.330936069703764E+000
-4.2907485E-001	-1.323650137299451E+000
-4.2796054E-001	-1.316472615632740E+000
-4.2701149E-001	-1.309004702363850E+000
-4.2601186E-001	-1.301386152750247E+000
-4.2494667E-001	-1.293901527783383E+000
-4.2395326E-001	-1.286532625693964E+000
-4.2298499E-001	-1.278988828171268E+000
-4.2210013E-001	-1.271628004947191E+000
-4.2098325E-001	-1.263972027434242E+000
-4.2001161E-001	-1.256956316054058E+000
-4.1894895E-001	-1.249355473728095E+000
-4.1797340E-001	-1.242365503200777E+000
-4.1696700E-001	-1.234734388389787E+000
-4.1597831E-001	-1.227107783710512E+000
-4.1500065E-001	-1.219791329293336E+000
-4.1399717E-001	-1.212664121273669E+000
-4.1296846E-001	-1.205448390157133E+000
-4.1190657E-001	-1.197931277807111E+000
-4.1096765E-001	-1.190458788284851E+000
-4.0990341E-001	-1.183110452222600E+000
-4.0894142E-001	-1.175603011967956E+000
-4.0798548E-001	-1.168595553691392E+000
-4.0691879E-001	-1.160863251459812E+000
-4.0591541E-001	-1.153735190629963E+000
-4.0496877E-001	-1.146664251157548E+000
-4.0395045E-001	-1.139403685513470E+000
-4.0292612E-001	-1.131810699348094E+000
-4.0194201E-001	-1.124603311549553E+000
-4.0094864E-001	-1.117331241705902E+000
-4.0000495E-001	-1.110173226506621E+000
-3.9894265E-001	-1.102997997429068E+000
-3.9790145E-001	-1.095341560465318E+000
-3.9695054E-001	-1.087904719842808E+000
-3.9593965E-001	-1.080654403523113E+000
-3.9490643E-001	-1.073325950928304E+000
-3.9403057E-001	-1.065961015169269E+000
-3.9295837E-001	-1.058603165106626E+000
-3.9194664E-001	-1.051398738528844E+000
-3.9100820E-001	-1.044129459946245E+000
-3.8988537E-001	-1.036918758290738E+000
-3.8892886E-001	-1.029377424882515E+000
-3.8793784E-001	-1.022455852478743E+000
-3.8707486E-001	-1.014942614793380E+000
-3.8596141E-001	-1.007432612004109E+000
-3.8501024E-001	-1.000578781244931E+000
-3.8390943E-001	-9.930418190754318E-001
-3.8293818E-001	-9.860556920369437E-001
-3.8196790E-001	-9.785607706893344E-001
-3.8100159E-001	-9.716798377887308E-001
-3.7994128E-001	-9.646941502061166E-001
-3.7894890E-001	-9.573645387534775E-001
-3.7798718E-001	-9.501936586836983E-001
-3.7697297E-001	-9.425767709811521E-001
-3.7596768E-001	-9.353704198643058E-001
-3.7501729E-001	-9.280699893210809E-001
-3.7394783E-001	-9.209524591763785E-001
-3.7296799E-001	-9.136432763878943E-001
-3.7191698E-001	-9.063334594428989E-001
-3.7091655E-001	-8.991260741044016E-001
-3.6994433E-001	-8.919710212007725E-001
-3.6891282E-001	-8.845277733697756E-001
-3.6795843E-001	-8.773780074660387E-001
-3.6698049E-001	-8.705774480821895E-001
-3.6596954E-001	-8.630420819692368E-001
-3.6497948E-001	-8.559238129743800E-001
-3.6400247E-001	-8.488703094146892E-001
-3.6293566E-001	-8.413256771994462E-001
-3.6188686E-001	-8.343778089792657E-001
-3.6098194E-001	-8.269931320790889E-001
-3.6004561E-001	-8.201283726199344E-001
-3.5901362E-001	-8.131978932630144E-001
-3.5789180E-001	-8.059975780198698E-001
-3.5696959E-001	-7.987235562392918E-001
-3.5599655E-001	-7.915905922375330E-001
-3.5495585E-001	-7.841353377071223E-001
-3.5394421E-001	-7.771881444172735E-001
-3.5298157E-001	-7.700220514778735E-001
-3.5190105E-001	-7.626952936072051E-001
-3.5093543E-001	-7.557832520731074E-001
-3.5000074E-001	-7.485627305038562E-001
-3.4900451E-001	-7.412179794533706E-001
-3.4794500E-001	-7.338587993548984E-001
-3.4694460E-001	-7.269819647901592E-001
-3.4597394E-001	-7.199664868581301E-001
-3.4503761E-001	-7.128363402077458E-001
-3.4398484E-001	-7.056059998080695E-001
-3.4290206E-001	-6.986123561841815E-001
-3.4193629E-001	-6.916647750056484E-001
-3.4093842E-001	-6.843032129108879E-001
-3.4004143E-001	-6.772517962150690E-001
-3.3895123E-001	-6.699067848838043E-001
-3.3794364E-001	-6.629118836588308E-001
-3.3690786E-001	-6.557960081495011E-001
-3.3593756E-001	-6.486259056600159E-001
-3.3500296E-001	-6.416691975599065E-001
-3.3400297E-001	-6.346799788820361E-001
-3.3304900E-001	-6.276147892629651E-001
-3.3201933E-001	-6.203781208368362E-001
-3.3099395E-001	-6.135133419581846E-001
-3.2997441E-001	-6.058201291770864E-001
-3.2894838E-001	-5.992032786210375E-001
-3.2803968E-001	-5.920697430832380E-001
-3.2702374E-001	-5.854697028106006E-001
-3.2596713E-001	-5.778581989170206E-001
-3.2491431E-001	-5.710280041145204E-001
-3.2398331E-001	-5.639445820340394E-001
-3.2297975E-001	-5.569534984037805E-001
-3.2199869E-001	-5.497028391045546E-001
-3.2098576E-001	-5.425049563248949E-001
-3.2002205E-001	-5.357785362888254E-001
-3.1903431E-001	-5.284935704741365E-001
-3.1793410E-001	-5.217729346757665E-001
-3.1702724E-001	-5.148339791016445E-001
-3.1596819E-001	-5.072156128399201E-001
-3.1501561E-001	-5.004771375959656E-001
-3.1406555E-001	-4.933661562563092E-001
-3.1303069E-001	-4.863038796999799E-001
-3.1194085E-001	-4.793562758713952E-001
-3.1100580E-001	-4.720080276882213E-001
-3.0998063E-001	-4.650837278949442E-001
-3.0903238E-001	-4.581742002456277E-001
-3.0797219E-001	-4.511074474150392E-001
-3.0679250E-001	-4.440860353113791E-001
-3.0576265E-001	-4.359853148322426E-001
-3.0477539E-001	-4.291061055715897E-001
-3.0377054E-001	-4.220996998526445E-001
-3.0265668E-001	-4.153192190246457E-001
-3.0172670E-001	-4.079061151330026E-001
-3.0073735E-001	-4.009833647007193E-001
-2.9977620E-001	-3.940580296847571E-001
-2.9881307E-001	-3.874048701506156E-001
-2.9771647E-001	-3.804888920168636E-001
-2.9685414E-001	-3.734065222519423E-001
-2.9579011E-001	-3.663684061425787E-001
-2.9464018E-001	-3.592802143345288E-001
-2.9377237E-001	-3.522801550657100E-001
-2.9269579E-001	-3.452110909856110E-001
-2.9168651E-001	-3.385596189096018E-001
-2.9066873E-001	-3.313615875042690E-001
-2.8971523E-001	-3.246460286264603E-001
-2.8871039E-001	-3.175259132835055E-001
-2.8781179E-001	-3.104562710073822E-001
-2.8662053E-001	-3.037429227353048E-001
-2.8571510E-001	-2.967252747190230E-001
-2.8475779E-001	-2.898603734318859E-001
-2.8366792E-001	-2.828956509056431E-001
-2.8264987E-001	-2.757660064294383E-001
-2.8174010E-001	-2.688961939334316E-001
-2.8077090E-001	-2.619406928818355E-001
-2.7967715E-001	-2.550908259150604E-001
-2.7875757E-001	-2.483814342844262E-001
-2.7777180E-001	-2.417327105657030E-001
-2.7671564E-001	-2.347057373435408E-001
-2.7572560E-001	-2.275972604337659E-001
-2.7457422E-001	-2.209403257984954E-001
-2.7373502E-001	-2.139767879551224E-001
-2.7295056E-001	-2.068462671574072E-001
-2.7175137E-001	-2.000314441195191E-001
-2.7071518E-001	-1.931634840934910E-001
-2.6971287E-001	-1.863343183261659E-001
-2.6861060E-001	-1.794045037947667E-001
-2.6768532E-001	-1.728306369924986E-001
-2.6683283E-001	-1.657351857154735E-001
-2.6568511E-001	-1.586685067076132E-001
-2.6485175E-001	-1.515445714057593E-001
-2.6373550E-001	-1.448266818360592E-001
-2.6288325E-001	-1.380231680714302E-001
-2.6167834E-001	-1.312982311851723E-001
-2.6062384E-001	-1.242585389322981E-001
-2.5973934E-001	-1.176386430797733E-001
-2.5864023E-001	-1.104763877509094E-001
-2.5765491E-001	-1.040320631496057E-001
-2.5673395E-001	-9.728035830234383E-002
-2.5575593E-001	-9.035397828901592E-002
-2.5474536E-001	-8.340857903197135E-002
-2.5363001E-001	-7.657099354092856E-002
-2.5284472E-001	-6.952252329534142E-002
-2.5166887E-001	-6.311127665038763E-002
-2.5085732E-001	-5.606730802032645E-002
-2.4956520E-001	-4.947581751427277E-002
-2.4868797E-001	-4.166791752282251E-002
-2.4737413E-001	-3.405129042005650E-002
-2.4645011E-001	-2.712201747474169E-002
-2.4536289E-001	-2.015678634050944E-002
-2.4448049E-001	-1.328964954073950E-002
-2.4347547E-001	-6.497089550032781E-003
-2.4245974E-001	3.539334133628377E-004
-2.4148062E-001	7.234600230327057E-003
-2.4043247E-001	1.386637944206420E-002
-2.3945278E-001	2.045262802044751E-002
-2.3834646E-001	2.758551476506038E-002
-2.3747860E-001	3.367955725709049E-002
-2.3653947E-001	4.070125902146461E-002
-2.3537876E-001	4.741252803122964E-002
-2.3450141E-001	5.449702831295644E-002
-2.3344503E-001	6.109423124821367E-002
-2.3234959E-001	6.780573816245639E-002
-2.3141348E-001	7.487639730485768E-002
-2.3043036E-001	8.173087001331925E-002
-2.2931319E-001	8.854828454140140E-002
-2.2840190E-001	9.510549359644438E-002
-2.2735970E-001	1.017351322909574E-001
-2.2623229E-001	1.095570558617410E-001
-2.2514468E-001	1.168753550111969E-001
-2.2409230E-001	1.238841232723722E-001
-2.2307900E-001	1.305506409283868E-001
-2.2199655E-001	1.372709908703604E-001
-2.2116517E-001	1.437632337350538E-001
-2.2017451E-001	1.504964962325710E-001
-2.1927120E-001	1.574209328515505E-001
-2.1790603E-001	1.637630126335554E-001
-2.1691455E-001	1.707138126647030E-001
-2.1618550E-001	1.773211290159935E-001
-2.1500118E-001	1.842186473206515E-001
-2.1408032E-001	1.907420974500753E-001
-2.1310426E-001	1.972915901375334E-001
-2.1205387E-001	2.039435600379012E-001
-2.1123019E-001	2.107196252241179E-001
-2.1026728E-001	2.173866521056849E-001
-2.0911823E-001	2.239423026158311E-001
-2.0796701E-001	2.305679848693587E-001
-2.0710769E-001	2.373263648251855E-001
-2.0607759E-001	2.440210041348578E-001
-2.0512302E-001	2.506178063512960E-001
-2.0420979E-001	2.572293205700831E-001
-2.0312077E-001	2.638300908729430E-001
-2.0201133E-001	2.703206308737958E-001
-2.0101964E-001	2.771553677265639E-001
-2.0016564E-001	2.837901445174669E-001
-1.9906913E-001	2.899789893309821E-001
-1.9818303E-001	2.966697211634797E-001
-1.9716403E-001	3.034227526298277E-001
-1.9602174E-001	3.100757277743145E-001
-1.9505809E-001	3.165350875685486E-001
-1.9411509E-001	3.233003532858909E-001
-1.9314124E-001	3.299058278056757E-001
-1.9209462E-001	3.366396075645430E-001
-1.9100638E-001	3.431096349463416E-001
-1.9012541E-001	3.494686090766841E-001
-1.8905495E-001	3.561816241569684E-001
-1.8816960E-001	3.627248230148803E-001
-1.8710768E-001	3.692429197814189E-001
-1.8601635E-001	3.757330619882975E-001
-1.8509078E-001	3.824493374192599E-001
-1.8413873E-001	3.888712322546368E-001
-1.8305518E-001	3.955741270060895E-001
-1.8196486E-001	4.017960636152145E-001
-1.8109767E-001	4.086837271849326E-001
-1.8009296E-001	4.152718380409581E-001
-1.7911026E-001	4.217643546009526E-001
-1.7816249E-001	4.280603214132560E-001
-1.7694360E-001	4.349416235502650E-001
-1.7607640E-001	4.411832548126027E-001
-1.7496295E-001	4.473339522050512E-001
-1.7401682E-001	4.543462988428217E-001
-1.7324749E-001	4.601855704353905E-001
-1.7221124E-001	4.673675938888842E-001
-1.7110996E-001	4.737573801929607E-001
-1.7006600E-001	4.802536282136458E-001
-1.6897991E-001	4.866302479058495E-001
-1.6797867E-001	4.933598463744815E-001
-1.6698378E-001	4.994350803533081E-001
-1.6611703E-001	5.060633298147605E-001
-1.6519679E-001	5.122184273817370E-001
-1.6417798E-001	5.187717023547047E-001
-1.6319942E-001	5.248458811806298E-001
-1.6204800E-001	5.316835024938498E-001
-1.6110763E-001	5.381482215943159E-001
-1.6012889E-001	5.445563635892352E-001
-1.5915906E-001	5.508772870390768E-001
-1.5801865E-001	5.572778483231842E-001
-1.5711510E-001	5.639741304920483E-001
-1.5631844E-001	5.699693974521427E-001
-1.5499073E-001	5.765395344545450E-001
-1.5427776E-001	5.829699490570341E-001
-1.5303832E-001	5.894047683449832E-001
-1.5209478E-001	5.955531792370277E-001
-1.5117568E-001	6.018345267579086E-001
-1.5002123E-001	6.098502192784228E-001
-1.4915830E-001	6.171172717931093E-001
-1.4821157E-001	6.229101964835180E-001
-1.4720778E-001	6.290957949779643E-001
-1.4593503E-001	6.358042526300327E-001
-1.4500822E-001	6.421484886115651E-001
-1.4401294E-001	6.484532408002370E-001
-1.4302547E-001	6.525067068222521E-001
-1.4200433E-001	6.586742341927954E-001
-1.4106967E-001	6.648539912507503E-001
-1.3996302E-001	6.715798936094406E-001
-1.3904905E-001	6.775882214770472E-001
-1.3809225E-001	6.841121367696283E-001
-1.3707532E-001	6.902027245335036E-001
-1.3612898E-001	6.955780823260245E-001
-1.3512988E-001	7.016716900937006E-001
-1.3396701E-001	7.088441617648904E-001
-1.3297366E-001	7.155093840332647E-001
-1.3206232E-001	7.216994435422919E-001
-1.3092446E-001	7.281648148265152E-001
-1.3013139E-001	7.344144258882253E-001
-1.2920092E-001	7.408220392686360E-001
-1.2823449E-001	7.471837211676213E-001
-1.2705258E-001	7.533786477432258E-001
-1.2597001E-001	7.596456930731224E-001
-1.2515970E-001	7.658481533742609E-001
-1.2400138E-001	7.724572629121766E-001
-1.2306853E-001	7.781392620807459E-001
-1.2208173E-001	7.846833827594946E-001
-1.2099003E-001	7.911431894740675E-001
-1.2009048E-001	7.973226426100286E-001
-1.1895411E-001	8.038288342456021E-001
-1.1798904E-001	8.101615958342174E-001
-1.1717606E-001	8.161921503919164E-001
-1.1600724E-001	8.226641128184582E-001
-1.1508051E-001	8.284670936760143E-001
-1.1413861E-001	8.346148545819290E-001
-1.1312103E-001	8.410476993907365E-001
-1.1205384E-001	8.472775473337215E-001
-1.1103201E-001	8.537104042867805E-001
-1.1024161E-001	8.598613181599877E-001
-1.0910926E-001	8.661493379642593E-001
-1.0824846E-001	8.723286775251236E-001
-1.0698270E-001	8.787569756861089E-001
-1.0610416E-001	8.847048566752278E-001
-1.0507163E-001	8.908654943936440E-001
-1.0426705E-001	8.971188860358996E-001
-1.0305025E-001	9.034179102466258E-001
-1.0210229E-001	9.094243496656365E-001
-1.0112035E-001	9.153589856017526E-001
-1.0002550E-001	9.214108946377024E-001
-9.9121042E-002	9.278810545802134E-001
-9.8069318E-002	9.338112812903177E-001
-9.7055554E-002	9.402602337924670E-001
-9.6015923E-002	9.467001117214053E-001
-9.5176965E-002	9.525765508965200E-001
-9.4123960E-002	9.587539512658081E-001
-9.2996500E-002	9.650655739285288E-001
-9.2103444E-002	9.713974065952673E-001
-9.1136359E-002	9.773830356145368E-001
-9.0090357E-002	9.835871086904255E-001
-8.9103356E-002	9.894902161766406E-001
-8.8091686E-002	9.959103233284452E-001
-8.7045267E-002	1.001847515641538E+000
-8.6163871E-002	1.008086942535501E+000
-8.4969386E-002	1.013957378626971E+000
-8.4085032E-002	1.020271037739738E+000
-8.3055146E-002	1.026041882641159E+000
-8.2083173E-002	1.032139916662818E+000
-8.1108667E-002	1.038225492117579E+000
-8.0078363E-002	1.044235552727525E+000
-7.9161339E-002	1.050259680797653E+000
-7.8004390E-002	1.056077576759794E+000
-7.7046350E-002	1.062320269137551E+000
-7.6049432E-002	1.068512695393080E+000
-7.5017005E-002	1.074319855068572E+000
-7.4207865E-002	1.080352344860753E+000
-7.3072433E-002	1.086493580291670E+000
-7.2133355E-002	1.092143288227141E+000
-7.0967823E-002	1.099462275079757E+000
-6.9934852E-002	1.106910686526032E+000
-6.8881221E-002	1.112923294029857E+000
-6.7954361E-002	1.118593540291666E+000
-6.6898890E-002	1.124590970023911E+000
-6.5912493E-002	1.130935796019106E+000
-6.4889438E-002	1.136886697803023E+000
-6.3873328E-002	1.142902127984494E+000
-6.2899224E-002	1.148728728984247E+000
-6.1844744E-002	1.155048611911072E+000
-6.0851142E-002	1.160782717720229E+000
-5.9952985E-002	1.166784634744675E+000
-5.8873806E-002	1.172408356449518E+000
-5.7905115E-002	1.178706796080981E+000
-5.6893900E-002	1.184699536197724E+000
-5.5924833E-002	1.190124652939492E+000
-5.4892685E-002	1.195988691653366E+000
-5.3827599E-002	1.201822554209720E+000
-5.2813642E-002	1.207743792696679E+000
-5.1927786E-002	1.214259125292301E+000
-5.0896421E-002	1.219798658733012E+000
-4.9961369E-002	1.225565755220906E+000
-4.8912387E-002	1.231790075837463E+000
-4.7891632E-002	1.237556736226441E+000
-4.6863239E-002	1.244038493323007E+000
-4.5826573E-002	1.249483918978108E+000
-4.4893593E-002	1.255455479237955E+000
-4.3843396E-002	1.261026850867051E+000
-4.2804394E-002	1.266672462500908E+000
-4.1842028E-002	1.272423716980988E+000
-4.0884852E-002	1.278535861246011E+000
-3.9830372E-002	1.284462450555080E+000
-3.8813405E-002	1.290238897968152E+000
-3.7813250E-002	1.296061007374963E+000
-3.6836825E-002	1.301826032085550E+000
-3.5833154E-002	1.307737501414781E+000
-3.4863196E-002	1.312975738473510E+000
-3.3948287E-002	1.318657059360435E+000
-3.2844532E-002	1.324540500623354E+000
-3.1891502E-002	1.330721882896286E+000
-3.0935656E-002	1.336377709552092E+000
-2.9878704E-002	1.342422921490815E+000
-2.8876534E-002	1.348388395513648E+000
-2.7879955E-002	1.354095201387452E+000
-2.6954437E-002	1.359667030546419E+000
-2.5908658E-002	1.365290844192110E+000
-2.4866266E-002	1.371360879943330E+000
-2.3794528E-002	1.376329752332836E+000
-2.2836417E-002	1.381775002788620E+000
-2.1938695E-002	1.387848222697219E+000
-2.0860370E-002	1.394228059664641E+000
-1.9902695E-002	1.399626548643468E+000
-1.8881511E-002	1.405173941480896E+000
-1.7805833E-002	1.411109643652861E+000
-1.6852090E-002	1.416937346673674E+000
-1.5830912E-002	1.422504720312574E+000
-1.4850638E-002	1.428049845217750E+000
-1.3812728E-002	1.433630525375960E+000
-1.2953402E-002	1.439163464362977E+000
-1.1872895E-002	1.444376029481095E+000
-1.0909554E-002	1.450504236613163E+000
-9.8669464E-003	1.456521228783654E+000
-8.9155044E-003	1.461756875232325E+000
-7.8869490E-003	1.467047257693828E+000
-6.9221933E-003	1.473068180459517E+000
-5.8544567E-003	1.478530458369825E+000
-4.8514050E-003	1.484107096024140E+000
-3.9203782E-003	1.489457379750633E+000
-2.8591668E-003	1.495612266588936E+000
-1.9085619E-003	1.500951482328006E+000
-9.2853315E-004	1.506299651055429E+000
3.9415227E-005	1.512160812761639E+000
1.1015260E-003	1.517606911697875E+000
2.1038274E-003	1.523411925192221E+000
3.1257302E-003	1.528890558668863E+000
4.1754628E-003	1.534507130997046E+000
5.0910045E-003	1.540158049651868E+000
6.1578667E-003	1.545355909445650E+000
6.6248998E-003	1.547913720210392E+000
6.5027145E-003	1.549258306622505E+000