EC-Lab ASCII FILE
Nb header lines : 63                          

Linear Sweep Voltammetry

Run on channel : 6 (SN 13765)
User : 
Electrode connection : standard
Potential control : Ewe
Ewe ctrl range : min = -2.50 V, max = 2.50 V
Ewe,I filtering : <None>
Safety Limits :
	Do not start on E overload
Channel : Floating
Acquisition started on : 07/13/2026 15:57:09.486
Technique started on : 07/13/2026 15:57:10.483
Loaded Setting File :  C:\Users\EEM-620\Desktop\Wade\20260630\LSV 1mg MoS2 1_C06.mpr
Saved on :
	File : N719_0713-e-3_C06.mpr
	Directory : C:\Users\EEM-620\Desktop\Wade\abao\20260713\
	Host : 192.109.209.200
Device : VSP-300 (SN 0025)
Address : 192.109.209.129
EC-LAB for windows v11.62 (software)
Internet server v27.00 (firmware)
Command interpretor v12.02 (firmware)
Electrode material : Au/Pd
Initial state : 
Electrolyte : NaCl (0.2M)
Comments : Fe(CN)63-/Fe(CN)64- 5.10-3 M
Cable : ULC
Reference electrode : SCE Saturated Calomel Electrode (0.241 V)
Electrode surface area : 0.001 cm2
Characteristic mass : 0.001 g
Equivalent Weight : 0.000 g/eq.
Density : 0.000 g/cm3
Volume (V) : 0.001 cm3
Cycle Definition : Charge/Discharge alternance
tR (h:m:s)          0:00:5.0000         
dER/dt (mV/h)       0.0                 
dER (mV)            0                   
dtR (s)             0.0500              
dE/dt               10.000              
dE/dt unit          mV/s                
Ei (V)              -0.800              
vs.                 Ref                 
EL (V)              0.010               
vs.                 Ref                 
record              <I>                 
dI                  0.000               
unit dI             uA                  
tI (s)              0.0000              
step percent        50                  
N                   10                  
E range min (V)     -2.500              
E range max (V)     2.500               
I Range             Auto                
I Range min         Unset               
I Range max         Unset               
I Range init        Unset               
Bandwidth           8                   

Ewe/V	<I>/mA	
-2.2941051E-001	0.000000000000000E+000
-2.2936851E-001	0.000000000000000E+000
-2.2909360E-001	0.000000000000000E+000
-2.2918905E-001	0.000000000000000E+000
-2.2929214E-001	0.000000000000000E+000
-2.2925015E-001	0.000000000000000E+000
-2.2967397E-001	0.000000000000000E+000
-2.2938378E-001	0.000000000000000E+000
-2.2926161E-001	0.000000000000000E+000
-2.2944871E-001	0.000000000000000E+000
-2.2964343E-001	0.000000000000000E+000
-2.2951362E-001	0.000000000000000E+000
-2.2944869E-001	0.000000000000000E+000
-2.2938761E-001	0.000000000000000E+000
-2.2928451E-001	0.000000000000000E+000
-2.2951743E-001	0.000000000000000E+000
-2.2929214E-001	0.000000000000000E+000
-2.2936086E-001	0.000000000000000E+000
-2.2908595E-001	0.000000000000000E+000
-2.2933032E-001	0.000000000000000E+000
-2.2916995E-001	0.000000000000000E+000
-2.2935323E-001	0.000000000000000E+000
-2.2930360E-001	0.000000000000000E+000
-2.2946015E-001	0.000000000000000E+000
-2.2915086E-001	0.000000000000000E+000
-2.2942579E-001	0.000000000000000E+000
-2.2954033E-001	0.000000000000000E+000
-2.2953270E-001	0.000000000000000E+000
-2.2978090E-001	0.000000000000000E+000
-2.2956324E-001	0.000000000000000E+000
-2.2936851E-001	0.000000000000000E+000
-2.2971979E-001	0.000000000000000E+000
-2.2909360E-001	0.000000000000000E+000
-2.2964725E-001	0.000000000000000E+000
-2.2951360E-001	0.000000000000000E+000
-2.2939524E-001	0.000000000000000E+000
-2.2932269E-001	0.000000000000000E+000
-2.2970451E-001	0.000000000000000E+000
-2.2916996E-001	0.000000000000000E+000
-2.2945632E-001	0.000000000000000E+000
-2.2917759E-001	0.000000000000000E+000
-2.2947542E-001	0.000000000000000E+000
-2.2971597E-001	0.000000000000000E+000
-2.2929597E-001	0.000000000000000E+000
-2.2980379E-001	0.000000000000000E+000
-2.2945634E-001	0.000000000000000E+000
-2.2971599E-001	0.000000000000000E+000
-2.2917378E-001	0.000000000000000E+000
-2.2939523E-001	0.000000000000000E+000
-2.2999853E-001	0.000000000000000E+000
-2.2946396E-001	0.000000000000000E+000
-2.3001762E-001	0.000000000000000E+000
-2.2940670E-001	0.000000000000000E+000
-2.2931506E-001	0.000000000000000E+000
-2.2954415E-001	0.000000000000000E+000
-2.2957088E-001	0.000000000000000E+000
-2.2959378E-001	0.000000000000000E+000
-2.2988015E-001	0.000000000000000E+000
-2.2938760E-001	0.000000000000000E+000
-2.2968160E-001	0.000000000000000E+000
-2.2897905E-001	0.000000000000000E+000
-2.3439337E-001	0.000000000000000E+000
-2.3453467E-001	0.000000000000000E+000
-7.8933263E-001	-4.859481345052305E+000
-7.8868598E-001	-4.832758830971052E+000
-7.8780693E-001	-4.798986911221787E+000
-7.8676456E-001	-4.773770696035143E+000
-7.8576100E-001	-4.753123297929065E+000
-7.8473961E-001	-4.735700936229151E+000
-7.8376168E-001	-4.720383218041174E+000
-7.8275579E-001	-4.706455332939825E+000
-7.8170598E-001	-4.693902034450460E+000
-7.8087801E-001	-4.681990213416256E+000
-7.7984816E-001	-4.670803887944487E+000
-7.7880919E-001	-4.659928643041184E+000
-7.7783537E-001	-4.649198992936705E+000
-7.7682471E-001	-4.638798173224195E+000
-7.7582276E-001	-4.628557575521647E+000
-7.7476698E-001	-4.618420057826555E+000
-7.7380830E-001	-4.608334124283552E+000
-7.7290201E-001	-4.598294146634899E+000
-7.7181631E-001	-4.588604514797531E+000
-7.7079606E-001	-4.578866564269603E+000
-7.6981133E-001	-4.568924574940297E+000
-7.6887691E-001	-4.559583227391585E+000
-7.6783538E-001	-4.549700399470723E+000
-7.6685810E-001	-4.539911123889482E+000
-7.6592910E-001	-4.530385118391791E+000
-7.6490700E-001	-4.520765269551234E+000
-7.6384056E-001	-4.511380633822192E+000
-7.6287919E-001	-4.501893660536524E+000
-7.6178694E-001	-4.492116769010892E+000
-7.6089436E-001	-4.482490194616503E+000
-7.5978893E-001	-4.473001462441891E+000
-7.5887656E-001	-4.463533873311347E+000
-7.5784183E-001	-4.454027053934553E+000
-7.5682235E-001	-4.444382057697695E+000
-7.5580585E-001	-4.434975684193027E+000
-7.5485629E-001	-4.425618641906312E+000
-7.5386399E-001	-4.416046986548217E+000
-7.5292808E-001	-4.406775912752845E+000
-7.5184047E-001	-4.396999920407914E+000
-7.5078142E-001	-4.387489732905713E+000
-7.4994999E-001	-4.378312165538471E+000
-7.4882811E-001	-4.368486848694300E+000
-7.4782509E-001	-4.359537921118928E+000
-7.4679309E-001	-4.349902198270520E+000
-7.4580991E-001	-4.340468327204391E+000
-7.4493682E-001	-4.331097651855831E+000
-7.4388427E-001	-4.321741945213731E+000
-7.4284464E-001	-4.312151775315954E+000
-7.4194461E-001	-4.303079115231838E+000
-7.4080133E-001	-4.293473371201117E+000
-7.3982096E-001	-4.284218629201249E+000
-7.3881888E-001	-4.274702457232337E+000
-7.3790210E-001	-4.265356194089975E+000
-7.3688573E-001	-4.255872255674120E+000
-7.3594809E-001	-4.246692189233417E+000
-7.3478061E-001	-4.237417813804392E+000
-7.3383349E-001	-4.227773732057344E+000
-7.3288155E-001	-4.218746343425977E+000
-7.3186040E-001	-4.209557463725389E+000
-7.3090160E-001	-4.199928331706257E+000
-7.2989577E-001	-4.190589757009661E+000
-7.2881919E-001	-4.181237702016478E+000
-7.2784936E-001	-4.172043241284491E+000
-7.2681987E-001	-4.162744909669215E+000
-7.2584516E-001	-4.153633729727190E+000
-7.2487384E-001	-4.144363906096537E+000
-7.2387868E-001	-4.135237814285901E+000
-7.2283679E-001	-4.125638122359923E+000
-7.2190362E-001	-4.116777351057095E+000
-7.2080439E-001	-4.107415239259577E+000
-7.1990794E-001	-4.098194142734567E+000
-7.1876329E-001	-4.088677902464516E+000
-7.1783704E-001	-4.079761407646288E+000
-7.1686643E-001	-4.070167180012781E+000
-7.1585119E-001	-4.061039421845351E+000
-7.1488756E-001	-4.051929329728011E+000
-7.1388555E-001	-4.042653714065210E+000
-7.1286088E-001	-4.033435944053878E+000
-7.1191728E-001	-4.024354604827494E+000
-7.1093386E-001	-4.015261124681540E+000
-7.0988077E-001	-4.006203585752736E+000
-7.0888287E-001	-3.996845738005799E+000
-7.0788288E-001	-3.987531262967323E+000
-7.0690131E-001	-3.978352840299952E+000
-7.0578003E-001	-3.968764099137609E+000
-7.0489693E-001	-3.959971824729863E+000
-7.0389730E-001	-3.950982887435842E+000
-7.0283651E-001	-3.941487142022503E+000
-7.0193523E-001	-3.932581828148265E+000
-7.0091933E-001	-3.922980655674579E+000
-6.9987404E-001	-3.914157138054891E+000
-6.9886798E-001	-3.905013762138505E+000
-6.9787443E-001	-3.895850287543396E+000
-6.9691080E-001	-3.886694518744271E+000
-6.9596809E-001	-3.877499578175724E+000
-6.9494534E-001	-3.868435320478902E+000
-6.9379860E-001	-3.859478382384737E+000
-6.9298720E-001	-3.850435094700899E+000
-6.9179130E-001	-3.841085828012872E+000
-6.9084215E-001	-3.832094301468118E+000
-6.8985713E-001	-3.823010362960673E+000
-6.8888533E-001	-3.814144940035035E+000
-6.8785143E-001	-3.804554450843070E+000
-6.8684065E-001	-3.795516607938005E+000
-6.8590361E-001	-3.786357388790638E+000
-6.8481439E-001	-3.777478716991574E+000
-6.8381780E-001	-3.768308028026851E+000
-6.8297416E-001	-3.759156587515875E+000
-6.8180770E-001	-3.750111734977494E+000
-6.8099403E-001	-3.740929162060784E+000
-6.7991573E-001	-3.731832159227444E+000
-6.7885423E-001	-3.722714919182993E+000
-6.7786485E-001	-3.713689588838163E+000
-6.7683059E-001	-3.704771966337567E+000
-6.7583269E-001	-3.695687695785821E+000
-6.7484772E-001	-3.686633610615022E+000
-6.7386496E-001	-3.677540259927039E+000
-6.7294496E-001	-3.668770652678276E+000
-6.7192340E-001	-3.659753394899539E+000
-6.7090166E-001	-3.650519837345592E+000
-6.6992855E-001	-3.641345510328259E+000
-6.6889906E-001	-3.632281745473517E+000
-6.6796005E-001	-3.623158112067323E+000
-6.6683167E-001	-3.614237543057496E+000
-6.6590834E-001	-3.604814258990451E+000
-6.6479599E-001	-3.596048921610709E+000
-6.6386467E-001	-3.587129238027117E+000
-6.6291541E-001	-3.577660041274850E+000
-6.6184270E-001	-3.569031805961600E+000
-6.6085523E-001	-3.559754612821127E+000
-6.5994906E-001	-3.550777670961841E+000
-6.5878713E-001	-3.541585758820965E+000
-6.5790534E-001	-3.532787654686857E+000
-6.5681487E-001	-3.523759442898964E+000
-6.5589464E-001	-3.515052578471071E+000
-6.5485311E-001	-3.505794901538778E+000
-6.5398437E-001	-3.497072596240926E+000
-6.5288305E-001	-3.488042092949799E+000
-6.5188414E-001	-3.478961473261864E+000
-6.5087479E-001	-3.470126780094930E+000
-6.4995354E-001	-3.461374216499550E+000
-6.4898211E-001	-3.452333210795005E+000
-6.4787221E-001	-3.443308976513357E+000
-6.4688206E-001	-3.434439617088902E+000
-6.4586246E-001	-3.425715975739351E+000
-6.4489502E-001	-3.416578452896204E+000
-6.4385742E-001	-3.407448030211031E+000
-6.4286470E-001	-3.398703800859274E+000
-6.4185750E-001	-3.389716403903780E+000
-6.4085472E-001	-3.380485467590852E+000
-6.3993692E-001	-3.371719762130994E+000
-6.3888347E-001	-3.362896869579949E+000
-6.3792425E-001	-3.354061276154916E+000
-6.3694322E-001	-3.344779618912256E+000
-6.3593584E-001	-3.336193962229643E+000
-6.3490206E-001	-3.327104198567980E+000
-6.3385224E-001	-3.317866495913925E+000
-6.3289481E-001	-3.309394012998638E+000
-6.3188118E-001	-3.300358554157457E+000
-6.3096499E-001	-3.291574056501744E+000
-6.2995756E-001	-3.282567809577337E+000
-6.2893724E-001	-3.273770928166911E+000
-6.2794942E-001	-3.264802220242992E+000
-6.2688792E-001	-3.255936471400439E+000
-6.2595052E-001	-3.247105941536347E+000
-6.2494546E-001	-3.237882932579069E+000
-6.2396663E-001	-3.229295115313462E+000
-6.2291646E-001	-3.220612965248236E+000
-6.2182897E-001	-3.211492248155452E+000
-6.2093717E-001	-3.202786419664621E+000
-6.1983663E-001	-3.193918695604354E+000
-6.1887586E-001	-3.185076376906167E+000
-6.1796147E-001	-3.176554529677233E+000
-6.1691648E-001	-3.167730886627140E+000
-6.1592329E-001	-3.158727311977643E+000
-6.1488402E-001	-3.149772404542682E+000
-6.1399418E-001	-3.140991367675639E+000
-6.1298704E-001	-3.131938696459481E+000
-6.1195314E-001	-3.123706964967646E+000
-6.1098284E-001	-3.114822339956412E+000
-6.1000097E-001	-3.105715439551417E+000
-6.0894179E-001	-3.097102016947886E+000
-6.0798758E-001	-3.088357783302129E+000
-6.0697216E-001	-3.079279257743451E+000
-6.0590202E-001	-3.070443714445346E+000
-6.0493946E-001	-3.061554327607155E+000
-6.0389543E-001	-3.052838255133899E+000
-6.0299426E-001	-3.044037762334689E+000
-6.0193646E-001	-3.035193253170572E+000
-6.0086203E-001	-3.026401855603396E+000
-5.9994292E-001	-3.017797074998683E+000
-5.9887457E-001	-3.008838140026292E+000
-5.9790391E-001	-2.999855920948377E+000
-5.9694940E-001	-2.991343987054061E+000
-5.9594536E-001	-2.982750818685254E+000
-5.9491885E-001	-2.973866593506592E+000
-5.9389853E-001	-2.965039093384902E+000
-5.9287584E-001	-2.956504163090823E+000
-5.9187144E-001	-2.947715717885227E+000
-5.9088010E-001	-2.939078904965157E+000
-5.8990794E-001	-2.930118846396599E+000
-5.8895212E-001	-2.921444028340005E+000
-5.8788007E-001	-2.912633297510702E+000
-5.8692342E-001	-2.904343734736798E+000
-5.8597600E-001	-2.895715701083344E+000
-5.8495170E-001	-2.886641293625594E+000
-5.8400220E-001	-2.878165566534904E+000
-5.8291119E-001	-2.869333826281412E+000
-5.8192152E-001	-2.860728531671379E+000
-5.8101815E-001	-2.852111517279241E+000
-5.7988793E-001	-2.843213948386669E+000
-5.7896745E-001	-2.834855697146523E+000
-5.7800061E-001	-2.825967150705836E+000
-5.7698691E-001	-2.817100205079278E+000
-5.7589966E-001	-2.808577084276477E+000
-5.7497752E-001	-2.799867652632564E+000
-5.7408494E-001	-2.791233185816708E+000
-5.7293338E-001	-2.782662820808937E+000
-5.7189810E-001	-2.773977513666502E+000
-5.7095820E-001	-2.765220324750302E+000
-5.6983262E-001	-2.756874634557875E+000
-5.6893301E-001	-2.748049280985651E+000
-5.6792432E-001	-2.739271911482028E+000
-5.6695366E-001	-2.730626534425408E+000
-5.6593633E-001	-2.722244332234077E+000
-5.6492805E-001	-2.713534755287341E+000
-5.6397796E-001	-2.704773584857641E+000
-5.6295806E-001	-2.696442053273877E+000
-5.6186283E-001	-2.687675908436358E+000
-5.6090099E-001	-2.679019936256939E+000
-5.5992359E-001	-2.670238062463426E+000
-5.5894345E-001	-2.661823531454091E+000
-5.5798769E-001	-2.653383031487461E+000
-5.5694294E-001	-2.644768462412873E+000
-5.5597913E-001	-2.636171740326787E+000
-5.5493093E-001	-2.627359170604635E+000
-5.5400056E-001	-2.618795211392420E+000
-5.5299431E-001	-2.610108296203911E+000
-5.5192679E-001	-2.601707519204524E+000
-5.5096865E-001	-2.592981773118172E+000
-5.5003822E-001	-2.584692226755241E+000
-5.4896295E-001	-2.576034980791587E+000
-5.4800051E-001	-2.567580173412956E+000
-5.4695213E-001	-2.558729618601149E+000
-5.4588795E-001	-2.550009463396332E+000
-5.4496926E-001	-2.541412387733107E+000
-5.4392564E-001	-2.532950244894707E+000
-5.4300725E-001	-2.524362645215469E+000
-5.4192877E-001	-2.515829268429012E+000
-5.4090482E-001	-2.507339890428348E+000
-5.4006606E-001	-2.498754428768578E+000
-5.3896755E-001	-2.490135453917363E+000
-5.3791618E-001	-2.481292522253046E+000
-5.3688121E-001	-2.472936332501742E+000
-5.3591305E-001	-2.464730950417342E+000
-5.3482741E-001	-2.456053462249486E+000
-5.3395408E-001	-2.447550992446921E+000
-5.3301775E-001	-2.438862110177679E+000
-5.3193563E-001	-2.430278024689983E+000
-5.3090686E-001	-2.421704319892108E+000
-5.2995294E-001	-2.413355534827261E+000
-5.2896875E-001	-2.404857669162134E+000
-5.2801466E-001	-2.396259951646684E+000
-5.2699715E-001	-2.387748403405702E+000
-5.2595472E-001	-2.379212555466360E+000
-5.2488160E-001	-2.370613641760961E+000
-5.2393681E-001	-2.361957846692317E+000
-5.2286875E-001	-2.353551374860111E+000
-5.2193415E-001	-2.344972338389461E+000
-5.2097249E-001	-2.336943106242902E+000
-5.1999533E-001	-2.328125505987758E+000
-5.1903450E-001	-2.319569369157158E+000
-5.1792234E-001	-2.311037612734019E+000
-5.1692092E-001	-2.302765300499402E+000
-5.1601189E-001	-2.294154578336965E+000
-5.1491714E-001	-2.285660029285473E+000
-5.1395202E-001	-2.277107696389230E+000
-5.1294589E-001	-2.268744870192471E+000
-5.1197720E-001	-2.260356249080772E+000
-5.1093936E-001	-2.251947089906579E+000
-5.0998259E-001	-2.243254212317648E+000
-5.0889736E-001	-2.234717400813548E+000
-5.0799918E-001	-2.226297139193167E+000
-5.0687718E-001	-2.217744052134165E+000
-5.0601810E-001	-2.209151187980616E+000
-5.0492811E-001	-2.201002806128809E+000
-5.0398344E-001	-2.192297209468153E+000
-5.0296074E-001	-2.184150513123587E+000
-5.0211704E-001	-2.175704884803650E+000
-5.0101942E-001	-2.167372767296108E+000
-4.9996549E-001	-2.158907679220036E+000
-4.9896473E-001	-2.150345017440642E+000
-4.9785846E-001	-2.142170158249364E+000
-4.9689475E-001	-2.133420248550404E+000
-4.9594378E-001	-2.124911541764085E+000
-4.9497688E-001	-2.116621030425592E+000
-4.9397194E-001	-2.108405390239643E+000
-4.9300516E-001	-2.099826592538101E+000
-4.9204379E-001	-2.091637381524952E+000
-4.9095872E-001	-2.082937288830585E+000
-4.8996538E-001	-2.074331978129015E+000
-4.8899701E-001	-2.065982113833787E+000
-4.8797798E-001	-2.057685630879570E+000
-4.8702252E-001	-2.049412724872429E+000
-4.8602468E-001	-2.041118654663919E+000
-4.8503780E-001	-2.032758791081299E+000
-4.8388690E-001	-2.024356637288022E+000
-4.8294398E-001	-2.016016988290680E+000
-4.8196867E-001	-2.007741287972550E+000
-4.8097184E-001	-1.999730770510652E+000
-4.7997504E-001	-1.991090735075652E+000
-4.7898701E-001	-1.983184353120521E+000
-4.7805446E-001	-1.974612357163873E+000
-4.7695565E-001	-1.966119712425609E+000
-4.7601849E-001	-1.957815656299647E+000
-4.7493747E-001	-1.949330715945479E+000
-4.7395229E-001	-1.941168617871064E+000
-4.7290611E-001	-1.932785409059496E+000
-4.7195494E-001	-1.924815364181995E+000
-4.7093183E-001	-1.916184683364849E+000
-4.6998709E-001	-1.907895869357695E+000
-4.6897221E-001	-1.899442671073804E+000
-4.6793321E-001	-1.891408267396471E+000
-4.6694383E-001	-1.883015689008605E+000
-4.6598825E-001	-1.874785224044764E+000
-4.6489009E-001	-1.866556726672037E+000
-4.6391854E-001	-1.858241388162948E+000
-4.6292424E-001	-1.849566949186506E+000
-4.6194550E-001	-1.841316488330007E+000
-4.6097022E-001	-1.833050020736263E+000
-4.5997989E-001	-1.824882101957442E+000
-4.5893857E-001	-1.816883809036681E+000
-4.5796478E-001	-1.808721381568603E+000
-4.5695412E-001	-1.800211478438641E+000
-4.5596519E-001	-1.792053690939031E+000
-4.5494771E-001	-1.783734941504862E+000
-4.5399392E-001	-1.775608719774979E+000
-4.5300916E-001	-1.766822132799362E+000
-4.5206150E-001	-1.758923371723792E+000
-4.5092970E-001	-1.750618586937589E+000
-4.4994354E-001	-1.742626869292167E+000
-4.4890517E-001	-1.734085147267837E+000
-4.4796035E-001	-1.726229696914006E+000
-4.4695619E-001	-1.717798228893014E+000
-4.4602907E-001	-1.709608835192441E+000
-4.4496232E-001	-1.701466246059649E+000
-4.4399548E-001	-1.693300391512892E+000
-4.4293380E-001	-1.685051628102855E+000
-4.4197112E-001	-1.677060649626782E+000
-4.4089928E-001	-1.668481253363458E+000
-4.3997091E-001	-1.660621461479629E+000
-4.3897825E-001	-1.652184275565325E+000
-4.3797359E-001	-1.644166843758679E+000
-4.3689826E-001	-1.635977875488086E+000
-4.3598682E-001	-1.627668321132667E+000
-4.3506494E-001	-1.619532877096425E+000
-4.3400601E-001	-1.611474478146398E+000
-4.3295109E-001	-1.603293418332384E+000
-4.3201748E-001	-1.595493875995832E+000
-4.3103284E-001	-1.587087818437915E+000
-4.3001652E-001	-1.579147916149211E+000
-4.2895404E-001	-1.570968192827422E+000
-4.2794421E-001	-1.563015545683875E+000
-4.2693433E-001	-1.554790903434707E+000
-4.2611727E-001	-1.546115027781416E+000
-4.2494965E-001	-1.538330635538802E+000
-4.2402536E-001	-1.530016884207722E+000
-4.2296708E-001	-1.522052532062952E+000
-4.2194828E-001	-1.513867339740209E+000
-4.2096782E-001	-1.505336715805310E+000
-4.2002809E-001	-1.497364682296897E+000
-4.1897976E-001	-1.489025370114378E+000
-4.1801667E-001	-1.481315243713283E+000
-4.1694620E-001	-1.472945771723744E+000
-4.1598517E-001	-1.464581540337313E+000
-4.1504195E-001	-1.456597270651002E+000
-4.1395879E-001	-1.448553675932057E+000
-4.1288632E-001	-1.440628297764947E+000
-4.1201049E-001	-1.432510415437044E+000
-4.1092932E-001	-1.424342603354013E+000
-4.0989363E-001	-1.416617397494887E+000
-4.0892428E-001	-1.408434678972867E+000
-4.0797234E-001	-1.400105752973396E+000
-4.0690014E-001	-1.392034695518241E+000
-4.0598077E-001	-1.383977041890227E+000
-4.0501130E-001	-1.376056226326970E+000
-4.0397617E-001	-1.368042464609497E+000
-4.0302947E-001	-1.359982247705812E+000
-4.0193605E-001	-1.351970332442406E+000
-4.0098879E-001	-1.343862318330343E+000
-4.0002400E-001	-1.335633185450684E+000
-3.9890984E-001	-1.327150252134706E+000
-3.9801538E-001	-1.319147100603136E+000
-3.9694244E-001	-1.311416394594644E+000
-3.9600152E-001	-1.303660418207343E+000
-3.9488098E-001	-1.295413597728363E+000
-3.9402631E-001	-1.287632686948335E+000
-3.9296672E-001	-1.279684045781398E+000
-3.9207178E-001	-1.271819471623058E+000
-3.9096001E-001	-1.263570988481796E+000
-3.8995823E-001	-1.255513441219807E+000
-3.8904643E-001	-1.247328441590074E+000
-3.8800931E-001	-1.239617826348100E+000
-3.8699594E-001	-1.231681848725417E+000
-3.8597608E-001	-1.223692789259888E+000
-3.8495660E-001	-1.215563402545670E+000
-3.8397628E-001	-1.207707061617387E+000
-3.8300222E-001	-1.199982864575254E+000
-3.8194498E-001	-1.191878922973516E+000
-3.8102117E-001	-1.183841837441953E+000
-3.7996715E-001	-1.175621860419160E+000
-3.7904757E-001	-1.167902609678332E+000
-3.7801546E-001	-1.159938966807609E+000
-3.7697086E-001	-1.152377758727031E+000
-3.7594268E-001	-1.144099794742136E+000
-3.7502092E-001	-1.136125786650158E+000
-3.7403283E-001	-1.128463835076053E+000
-3.7299621E-001	-1.120791931119228E+000
-3.7201640E-001	-1.112366468625282E+000
-3.7098676E-001	-1.104316851469104E+000
-3.6995474E-001	-1.096801867501600E+000
-3.6896285E-001	-1.088386079904000E+000
-3.6798236E-001	-1.080551009211277E+000
-3.6697477E-001	-1.072717777280894E+000
-3.6601055E-001	-1.064649574254667E+000
-3.6500964E-001	-1.056561251067455E+000
-3.6404508E-001	-1.049261779696852E+000
-3.6288792E-001	-1.041172736934752E+000
-3.6199573E-001	-1.033205997336794E+000
-3.6100379E-001	-1.025297665623604E+000
-3.6004457E-001	-1.017963491932104E+000
-3.5903442E-001	-1.009613257177447E+000
-3.5793629E-001	-1.001789248771409E+000
-3.5686561E-001	-9.939540761212511E-001
-3.5596895E-001	-9.859435860481511E-001
-3.5497570E-001	-9.783677162794877E-001
-3.5392296E-001	-9.703357713641942E-001
-3.5300854E-001	-9.627504009339560E-001
-3.5199296E-001	-9.544853224566676E-001
-3.5096720E-001	-9.469525620893187E-001
-3.4996510E-001	-9.391516849950570E-001
-3.4907395E-001	-9.315518745911746E-001
-3.4796500E-001	-9.238805694988432E-001
-3.4692511E-001	-9.157015439812763E-001
-3.4604019E-001	-9.081068387493882E-001
-3.4496441E-001	-9.001696892082673E-001
-3.4393749E-001	-8.925398183917572E-001
-3.4293920E-001	-8.847965609023400E-001
-3.4201396E-001	-8.767062716737986E-001
-3.4100807E-001	-8.689881857070638E-001
-3.3996686E-001	-8.614205436505173E-001
-3.3903968E-001	-8.534617723414222E-001
-3.3795509E-001	-8.452479858641255E-001
-3.3694589E-001	-8.375521120791340E-001
-3.3588323E-001	-8.299008133234782E-001
-3.3500883E-001	-8.223165577208604E-001
-3.3399931E-001	-8.143679083621578E-001
-3.3300656E-001	-8.067146352043864E-001
-3.3192068E-001	-7.988423469165973E-001
-3.3095923E-001	-7.915504944860174E-001
-3.2989931E-001	-7.842878052895816E-001
-3.2903937E-001	-7.766132924567770E-001
-3.2796878E-001	-7.684159462188198E-001
-3.2696560E-001	-7.607257724222194E-001
-3.2596061E-001	-7.525638655793934E-001
-3.2505029E-001	-7.450688750758765E-001
-3.2397527E-001	-7.373435393803627E-001
-3.2300138E-001	-7.298085480514516E-001
-3.2192379E-001	-7.219742299562455E-001
-3.2096535E-001	-7.142067299120995E-001
-3.2002160E-001	-7.065788288083343E-001
-3.1897262E-001	-6.983299140290038E-001
-3.1802490E-001	-6.911992273396912E-001
-3.1698352E-001	-6.833918216741752E-001
-3.1596857E-001	-6.758663812211836E-001
-3.1491616E-001	-6.678611203614224E-001
-3.1406105E-001	-6.605182812997557E-001
-3.1298521E-001	-6.528700076645784E-001
-3.1196862E-001	-6.448937204700922E-001
-3.1101874E-001	-6.374704316258422E-001
-3.0996767E-001	-6.298085914177483E-001
-3.0905998E-001	-6.224435634083236E-001
-3.0801693E-001	-6.145640213594401E-001
-3.0698913E-001	-6.070046495862806E-001
-3.0603144E-001	-5.992297658489818E-001
-3.0495360E-001	-5.915339531859845E-001
-3.0393732E-001	-5.838215311153543E-001
-3.0291653E-001	-5.763617057215278E-001
-3.0209178E-001	-5.689128467606164E-001
-3.0096519E-001	-5.611485719152896E-001
-3.0001891E-001	-5.537596817507806E-001
-2.9892853E-001	-5.458903472042760E-001
-2.9799283E-001	-5.385424650383683E-001
-2.9702681E-001	-5.307805712714284E-001
-2.9603511E-001	-5.232472310739524E-001
-2.9506293E-001	-5.155351079652455E-001
-2.9398045E-001	-5.081323281758365E-001
-2.9297251E-001	-5.005330398922521E-001
-2.9192451E-001	-4.932941899255461E-001
-2.9091498E-001	-4.858670899023614E-001
-2.9004219E-001	-4.777997554209268E-001
-2.8904444E-001	-4.704601087228006E-001
-2.8803918E-001	-4.624212234522425E-001
-2.8699428E-001	-4.552039993875017E-001
-2.8590390E-001	-4.477532641203315E-001
-2.8494102E-001	-4.399080560407662E-001
-2.8369942E-001	-4.315528084905820E-001
-2.8266135E-001	-4.238310338308411E-001
-2.8172711E-001	-4.162818312782903E-001
-2.8062853E-001	-4.088643937612186E-001
-2.7985573E-001	-4.013145716377968E-001
-2.7879488E-001	-3.940944530897665E-001
-2.7791363E-001	-3.864702379341765E-001
-2.7670631E-001	-3.786511868238467E-001
-2.7574342E-001	-3.714277315194980E-001
-2.7480119E-001	-3.639177274857017E-001
-2.7394459E-001	-3.565783895621131E-001
-2.7272639E-001	-3.489341297428350E-001
-2.7174556E-001	-3.414741125967722E-001
-2.7055204E-001	-3.338416553343893E-001
-2.6974913E-001	-3.261327985329201E-001
-2.6881281E-001	-3.188418981345826E-001
-2.6772779E-001	-3.112788713295682E-001
-2.6685995E-001	-3.038620864972463E-001
-2.6577428E-001	-2.966837237559381E-001
-2.6468268E-001	-2.886403572435179E-001
-2.6380193E-001	-2.814264991148203E-001
-2.6262188E-001	-2.744318036169124E-001
-2.6168129E-001	-2.666793767431829E-001
-2.6069534E-001	-2.594071313807802E-001
-2.5981483E-001	-2.521802862754843E-001
-2.5880992E-001	-2.442634030486701E-001
-2.5774825E-001	-2.367964233099309E-001
-2.5669199E-001	-2.296152442422505E-001
-2.5565156E-001	-2.220889217116759E-001
-2.5469828E-001	-2.148859231836266E-001
-2.5381669E-001	-2.071236102570342E-001
-2.5259459E-001	-1.998089825458547E-001
-2.5163087E-001	-1.922400492864353E-001
-2.5065047E-001	-1.853889826919146E-001
-2.4981807E-001	-1.774522031277965E-001
-2.4867293E-001	-1.705339067569245E-001
-2.4770378E-001	-1.626958241168819E-001
-2.4670404E-001	-1.553211334782336E-001
-2.4591835E-001	-1.483075425887890E-001
-2.4486066E-001	-1.408732400655199E-001
-2.4378368E-001	-1.335905536457345E-001
-2.4272031E-001	-1.260696366873005E-001
-2.4173430E-001	-1.189556311367563E-001
-2.4083640E-001	-1.112314291919270E-001
-2.3972858E-001	-1.040985393973548E-001
-2.3876454E-001	-9.669556460101855E-002
-2.3762988E-001	-8.921224434204666E-002
-2.3659019E-001	-8.228068587673421E-002
-2.3575315E-001	-7.497456595646540E-002
-2.3475595E-001	-6.748951787853408E-002
-2.3362514E-001	-6.036025430473990E-002
-2.3276535E-001	-5.321147210930494E-002
-2.3171258E-001	-4.593825890010028E-002
-2.3060587E-001	-3.759139585352766E-002
-2.2938147E-001	-2.908669701018551E-002
-2.2842333E-001	-2.187419536359672E-002
-2.2750001E-001	-1.448985346276524E-002
-2.2648302E-001	-7.169878051003990E-003
-2.2538397E-001	2.313774465139220E-005
-2.2442365E-001	7.332666286948966E-003
-2.2341563E-001	1.484384789903376E-002
-2.2241250E-001	2.185404972664806E-002
-2.2142680E-001	2.926806239423785E-002
-2.2035018E-001	3.662508430338851E-002
-2.1936782E-001	4.362973392320180E-002
-2.1848740E-001	5.087352735694439E-002
-2.1729045E-001	5.855158484471901E-002
-2.1639994E-001	6.534759950375713E-002
-2.1536489E-001	7.274220365829120E-002
-2.1443437E-001	8.000371378363536E-002
-2.1328123E-001	8.708838814938491E-002
-2.1245117E-001	9.439486227227378E-002
-2.1130802E-001	1.014603772200646E-001
-2.1032842E-001	1.097406718708867E-001
-2.0914285E-001	1.179450773978952E-001
-2.0802154E-001	1.248475359235375E-001
-2.0696326E-001	1.318133198732647E-001
-2.0622398E-001	1.393149467530073E-001
-2.0514232E-001	1.463933311471786E-001
-2.0417377E-001	1.534697149685225E-001
-2.0311332E-001	1.606067294530853E-001
-2.0204082E-001	1.679598114591234E-001
-2.0101525E-001	1.748300727715568E-001
-1.9997470E-001	1.824723680814109E-001
-1.9909203E-001	1.890950556327082E-001
-1.9826151E-001	1.964888193973353E-001
-1.9714110E-001	2.037382906440783E-001
-1.9615428E-001	2.108025210737088E-001
-1.9518404E-001	2.178106557474795E-001
-1.9420758E-001	2.249074122971960E-001
-1.9301522E-001	2.319061135942182E-001
-1.9234930E-001	2.394421816801140E-001
-1.9113597E-001	2.464847758550350E-001
-1.9008362E-001	2.536631541119672E-001
-1.8898791E-001	2.608323341888368E-001
-1.8813309E-001	2.678081037959568E-001
-1.8706018E-001	2.744356002313664E-001
-1.8602167E-001	2.818914871950353E-001
-1.8525073E-001	2.888180071970941E-001
-1.8405262E-001	2.959166463740455E-001
-1.8317376E-001	3.029098238247443E-001
-1.8212715E-001	3.100487263873219E-001
-1.8101262E-001	3.171504506220431E-001
-1.8007822E-001	3.241099965680787E-001
-1.7921126E-001	3.316445324087032E-001
-1.7808612E-001	3.383705543561111E-001
-1.7691185E-001	3.454374702466536E-001
-1.7599390E-001	3.525427378783057E-001
-1.7508090E-001	3.596324775092024E-001
-1.7418417E-001	3.663890973061892E-001
-1.7299207E-001	3.734405712672961E-001
-1.7210495E-001	3.803344944285019E-001
-1.7122996E-001	3.879304877132004E-001
-1.7002696E-001	3.948463724443210E-001
-1.6894999E-001	4.014083325035038E-001
-1.6808303E-001	4.090446999482271E-001
-1.6712295E-001	4.156288463208422E-001
-1.6600439E-001	4.228233899231295E-001
-1.6521245E-001	4.293418443266619E-001
-1.6402078E-001	4.367083177246425E-001
-1.6300322E-001	4.434374718478447E-001
-1.6207537E-001	4.505599579997295E-001
-1.6120140E-001	4.574210135335184E-001
-1.6017216E-001	4.644887801949622E-001
-1.5904894E-001	4.718705771217988E-001
-1.5815188E-001	4.784645840387656E-001
-1.5712686E-001	4.853746880247247E-001
-1.5602657E-001	4.922184078367775E-001
-1.5506308E-001	4.990268242717892E-001
-1.5405960E-001	5.062178359526742E-001
-1.5304807E-001	5.130009157928068E-001
-1.5218621E-001	5.196005682012541E-001
-1.5108918E-001	5.268297695530837E-001
-1.5009655E-001	5.338089074939489E-001
-1.4894828E-001	5.406675131784535E-001
-1.4812227E-001	5.474254915004426E-001
-1.4699440E-001	5.541923710455512E-001
-1.4610131E-001	5.611590796184784E-001
-1.4512298E-001	5.680823319149910E-001
-1.4404094E-001	5.742984433416973E-001
-1.4310080E-001	5.816087718639100E-001
-1.4218496E-001	5.884438124767140E-001
-1.4103319E-001	5.956478302401518E-001
-1.4002727E-001	6.018034861319608E-001
-1.3898009E-001	6.090684118975993E-001
-1.3814698E-001	6.160847570195256E-001
-1.3717757E-001	6.224130328606705E-001
-1.3609996E-001	6.291106273680351E-001
-1.3518886E-001	6.360281140164108E-001
-1.3396128E-001	6.432948863754699E-001
-1.3315552E-001	6.500264523286141E-001
-1.3210177E-001	6.565939695746792E-001
-1.3107041E-001	6.636290041108950E-001
-1.3003050E-001	6.699119701531595E-001
-1.2893769E-001	6.771736322315753E-001
-1.2803084E-001	6.841435028860960E-001
-1.2696752E-001	6.910966836681531E-001
-1.2612125E-001	6.978178359568119E-001
-1.2511601E-001	7.041344328748984E-001
-1.2409160E-001	7.108192076029773E-001
-1.2304924E-001	7.175496388916596E-001
-1.2208617E-001	7.246232359773579E-001
-1.2106734E-001	7.312869973386196E-001
-1.2005760E-001	7.377112152537801E-001
-1.1889684E-001	7.442563065776104E-001
-1.1801261E-001	7.510404040740766E-001
-1.1713598E-001	7.580015705553462E-001
-1.1630187E-001	7.647401880196938E-001
-1.1513645E-001	7.715834512646946E-001
-1.1403637E-001	7.780487927849631E-001
-1.1303874E-001	7.841648048272809E-001
-1.1202196E-001	7.912826753849984E-001
-1.1114655E-001	7.978932621578387E-001
-1.1019113E-001	8.045404298162051E-001
-1.0901824E-001	8.113880975024088E-001
-1.0802826E-001	8.178496707092862E-001
-1.0718677E-001	8.245660159047015E-001
-1.0602953E-001	8.314076977242078E-001
-1.0510790E-001	8.376881660962567E-001
-1.0412046E-001	8.445313403175962E-001
-1.0313208E-001	8.511114258246124E-001
-1.0211013E-001	8.579516409447900E-001
-1.0107006E-001	8.642636632753753E-001
-1.0009260E-001	8.708072197674515E-001
-9.9099211E-002	8.776434705489216E-001
-9.7932078E-002	8.846225822689373E-001
-9.7073376E-002	8.909610281315992E-001
-9.6098654E-002	8.978184159431208E-001
-9.5123291E-002	9.037614762783015E-001
-9.4000496E-002	9.104700961274705E-001
-9.3134813E-002	9.167966693639773E-001
-9.2074700E-002	9.238548201682697E-001
-9.1033906E-002	9.306393610658432E-001
-9.0244785E-002	9.366580165094796E-001
-8.9109197E-002	9.433969499160391E-001
-8.8039719E-002	9.501632930779902E-001
-8.6989269E-002	9.562576774645724E-001
-8.6114034E-002	9.629569361925139E-001
-8.4982961E-002	9.697553921076949E-001
-8.3977275E-002	9.761020226611006E-001
-8.3009303E-002	9.822528111942290E-001
-8.2038850E-002	9.890879602343929E-001
-8.1144728E-002	9.953196266735063E-001
-8.0042213E-002	1.002313936364111E+000
-7.9042979E-002	1.008416619841697E+000
-7.8159250E-002	1.015071744168246E+000
-7.7029161E-002	1.021158803817470E+000
-7.6025672E-002	1.027607209980483E+000
-7.4951470E-002	1.034029255586647E+000
-7.4020192E-002	1.040346583349628E+000
-7.3096834E-002	1.047231679299363E+000
-7.2006494E-002	1.053650638571492E+000
-7.0931427E-002	1.060222111999728E+000
-7.0091195E-002	1.066205263275791E+000
-6.9069177E-002	1.072871909235364E+000
-6.8061113E-002	1.079283705309294E+000
-6.7042284E-002	1.086285010670071E+000
-6.6043593E-002	1.092572211667346E+000
-6.4943247E-002	1.100128230420196E+000
-6.3831531E-002	1.107297550886869E+000
-6.2916629E-002	1.113980557079671E+000
-6.1927032E-002	1.119942920764604E+000
-6.0884871E-002	1.126942260535779E+000
-5.9839927E-002	1.132627641851151E+000
-5.8966879E-002	1.139402538241937E+000
-5.7909351E-002	1.145343090235084E+000
-5.6813296E-002	1.151858841655429E+000
-5.5835702E-002	1.157351222578374E+000
-5.4899056E-002	1.164342739929760E+000
-5.3728748E-002	1.170605810980003E+000
-5.2891739E-002	1.176654074600906E+000
-5.1843781E-002	1.182338965297848E+000
-5.0960694E-002	1.189882529968468E+000
-4.9895819E-002	1.195978771529245E+000
-4.8908994E-002	1.202493798263646E+000
-4.7828417E-002	1.208833795040848E+000
-4.6909697E-002	1.214971764724034E+000
-4.5878336E-002	1.221128723549626E+000
-4.4955939E-002	1.227298963964434E+000
-4.3840852E-002	1.233706227469225E+000
-4.2978551E-002	1.239966854177140E+000
-4.1935313E-002	1.246642983590355E+000
-4.0853456E-002	1.252546556018014E+000
-3.9853282E-002	1.258734928375048E+000
-3.8869098E-002	1.265165935672857E+000
-3.7835732E-002	1.271389960966729E+000
-3.6960706E-002	1.277542860557638E+000
-3.5791069E-002	1.283731586980570E+000
-3.4829676E-002	1.289899710289861E+000
-3.3840105E-002	1.296153182508767E+000
-3.2839999E-002	1.301936844263464E+000
-3.1955987E-002	1.308386593091273E+000
-3.0844864E-002	1.314191219017466E+000
-2.9922320E-002	1.320578544823800E+000
-2.8900292E-002	1.326621749886758E+000
-2.7864898E-002	1.332423117563691E+000
-2.6879728E-002	1.339333560250779E+000
-2.5875568E-002	1.345370166969523E+000
-2.4879627E-002	1.351479199473509E+000
-2.3856062E-002	1.357473838189498E+000
-2.2836417E-002	1.363812672181263E+000
-2.1892661E-002	1.368991141655930E+000
-2.0861479E-002	1.375667557035188E+000
-1.9961454E-002	1.381277303866764E+000
-1.8864755E-002	1.387943775979458E+000
-1.7857464E-002	1.393487737637052E+000
-1.6903635E-002	1.400664870799691E+000
-1.5880970E-002	1.406054301808275E+000
-1.4858053E-002	1.412181655467535E+000
-1.3817820E-002	1.418202946031528E+000
-1.2857095E-002	1.424196707843627E+000
-1.1845794E-002	1.430200287283363E+000
-1.0822368E-002	1.436372618432396E+000
-9.8896436E-003	1.442390242798457E+000
-8.8559417E-003	1.447798591082002E+000
-7.9111317E-003	1.454546888945277E+000
-6.9098896E-003	1.460346015791103E+000
-5.8603119E-003	1.466397699521416E+000
-4.8885280E-003	1.472290117017646E+000
-3.8891949E-003	1.478152261702002E+000
-2.9597606E-003	1.484259565227340E+000
-1.9910794E-003	1.490089461483333E+000
-8.7995583E-004	1.496111823176893E+000
7.1126633E-005	1.501779928074763E+000
1.0656763E-003	1.507629156112668E+000
2.1502832E-003	1.514112065235771E+000
3.0757226E-003	1.520034938293131E+000
4.1309162E-003	1.525639929153307E+000
5.1319450E-003	1.531375583675171E+000
6.0802763E-003	1.537024520758200E+000
6.7318119E-003	1.539941743016243E+000
6.8272687E-003	1.540237292647362E+000