EC-Lab ASCII FILE
Nb header lines : 63                          

Linear Sweep Voltammetry

Run on channel : 6 (SN 13765)
User : 
Electrode connection : standard
Potential control : Ewe
Ewe ctrl range : min = -2.50 V, max = 2.50 V
Ewe,I filtering : <None>
Safety Limits :
	Do not start on E overload
Channel : Floating
Acquisition started on : 07/13/2026 15:18:31.135
Technique started on : 07/13/2026 15:18:32.132
Loaded Setting File :  C:\Users\EEM-620\Desktop\Wade\20260630\LSV 1mg MoS2 1_C06.mpr
Saved on :
	File : N719_0713-a-3_C06.mpr
	Directory : C:\Users\EEM-620\Desktop\Wade\abao\20260713\
	Host : 192.109.209.200
Device : VSP-300 (SN 0025)
Address : 192.109.209.129
EC-LAB for windows v11.62 (software)
Internet server v27.00 (firmware)
Command interpretor v12.02 (firmware)
Electrode material : Au/Pd
Initial state : 
Electrolyte : NaCl (0.2M)
Comments : Fe(CN)63-/Fe(CN)64- 5.10-3 M
Cable : ULC
Reference electrode : SCE Saturated Calomel Electrode (0.241 V)
Electrode surface area : 0.001 cm2
Characteristic mass : 0.001 g
Equivalent Weight : 0.000 g/eq.
Density : 0.000 g/cm3
Volume (V) : 0.001 cm3
Cycle Definition : Charge/Discharge alternance
tR (h:m:s)          0:00:5.0000         
dER/dt (mV/h)       0.0                 
dER (mV)            0                   
dtR (s)             0.0500              
dE/dt               10.000              
dE/dt unit          mV/s                
Ei (V)              -0.800              
vs.                 Ref                 
EL (V)              0.010               
vs.                 Ref                 
record              <I>                 
dI                  0.000               
unit dI             uA                  
tI (s)              0.0000              
step percent        50                  
N                   10                  
E range min (V)     -2.500              
E range max (V)     2.500               
I Range             Auto                
I Range min         Unset               
I Range max         Unset               
I Range init        Unset               
Bandwidth           8                   

Ewe/V	<I>/mA	
-5.7154101E-001	0.000000000000000E+000
-5.7180828E-001	0.000000000000000E+000
-5.7174337E-001	0.000000000000000E+000
-5.7169759E-001	0.000000000000000E+000
-5.7134628E-001	0.000000000000000E+000
-5.7180065E-001	0.000000000000000E+000
-5.7171279E-001	0.000000000000000E+000
-5.7182741E-001	0.000000000000000E+000
-5.7159829E-001	0.000000000000000E+000
-5.7164794E-001	0.000000000000000E+000
-5.7179683E-001	0.000000000000000E+000
-5.7164031E-001	0.000000000000000E+000
-5.7170904E-001	0.000000000000000E+000
-5.7153720E-001	0.000000000000000E+000
-5.7147229E-001	0.000000000000000E+000
-5.7154101E-001	0.000000000000000E+000
-5.7150662E-001	0.000000000000000E+000
-5.7177776E-001	0.000000000000000E+000
-5.7192665E-001	0.000000000000000E+000
-5.7199156E-001	0.000000000000000E+000
-5.7177395E-001	0.000000000000000E+000
-5.7191139E-001	0.000000000000000E+000
-5.7190371E-001	0.000000000000000E+000
-5.7154864E-001	0.000000000000000E+000
-5.7188082E-001	0.000000000000000E+000
-5.7182741E-001	0.000000000000000E+000
-5.7156390E-001	0.000000000000000E+000
-5.7167846E-001	0.000000000000000E+000
-5.7155627E-001	0.000000000000000E+000
-5.7130808E-001	0.000000000000000E+000
-5.7191139E-001	0.000000000000000E+000
-5.7165176E-001	0.000000000000000E+000
-5.7172811E-001	0.000000000000000E+000
-5.7173955E-001	0.000000000000000E+000
-5.7198775E-001	0.000000000000000E+000
-5.7164413E-001	0.000000000000000E+000
-5.7151812E-001	0.000000000000000E+000
-5.7157153E-001	0.000000000000000E+000
-5.7169372E-001	0.000000000000000E+000
-5.7120883E-001	0.000000000000000E+000
-5.7194579E-001	0.000000000000000E+000
-5.7189989E-001	0.000000000000000E+000
-5.7175100E-001	0.000000000000000E+000
-5.7152188E-001	0.000000000000000E+000
-5.7188845E-001	0.000000000000000E+000
-5.7159829E-001	0.000000000000000E+000
-5.7161736E-001	0.000000000000000E+000
-5.7191902E-001	0.000000000000000E+000
-5.7165557E-001	0.000000000000000E+000
-5.7200301E-001	0.000000000000000E+000
-5.7168227E-001	0.000000000000000E+000
-5.7201833E-001	0.000000000000000E+000
-5.7174718E-001	0.000000000000000E+000
-5.7175869E-001	0.000000000000000E+000
-5.7177776E-001	0.000000000000000E+000
-5.7194960E-001	0.000000000000000E+000
-5.7233524E-001	0.000000000000000E+000
-5.7148373E-001	0.000000000000000E+000
-5.7176250E-001	0.000000000000000E+000
-5.7185793E-001	0.000000000000000E+000
-5.7194954E-001	0.000000000000000E+000
-5.7685608E-001	0.000000000000000E+000
-5.7664609E-001	0.000000000000000E+000
-7.8934407E-001	-2.600437921026479E+000
-7.8866398E-001	-2.586948580257587E+000
-7.8771877E-001	-2.565256902189176E+000
-7.8673899E-001	-2.546225286468303E+000
-7.8568727E-001	-2.528413740522009E+000
-7.8467631E-001	-2.511807229783798E+000
-7.8377020E-001	-2.496238541823857E+000
-7.8273737E-001	-2.481291939664828E+000
-7.8175831E-001	-2.466289933908868E+000
-7.8076792E-001	-2.451884526069517E+000
-7.7971953E-001	-2.437933288304670E+000
-7.7873409E-001	-2.424349602449830E+000
-7.7777874E-001	-2.410907577585292E+000
-7.7679974E-001	-2.397442293490894E+000
-7.7571231E-001	-2.384400434792049E+000
-7.7476531E-001	-2.371122527177675E+000
-7.7376050E-001	-2.358172365944377E+000
-7.7282834E-001	-2.345014626505197E+000
-7.7182657E-001	-2.331849895693644E+000
-7.7077055E-001	-2.318806004135702E+000
-7.6975381E-001	-2.306007385529858E+000
-7.6877016E-001	-2.293216654823883E+000
-7.6782757E-001	-2.280407864533437E+000
-7.6682895E-001	-2.267553537256177E+000
-7.6582223E-001	-2.254637209905518E+000
-7.6479077E-001	-2.241580645269785E+000
-7.6379979E-001	-2.228836612293016E+000
-7.6280773E-001	-2.215949118965199E+000
-7.6181835E-001	-2.203245384729613E+000
-7.6079398E-001	-2.190409368662927E+000
-7.5991005E-001	-2.177751985964942E+000
-7.5874847E-001	-2.164878862275588E+000
-7.5776583E-001	-2.152179916147830E+000
-7.5679535E-001	-2.139366944630943E+000
-7.5585103E-001	-2.126635287562905E+000
-7.5478435E-001	-2.113993802280334E+000
-7.5382781E-001	-2.101345761446467E+000
-7.5280100E-001	-2.088632867844023E+000
-7.5180024E-001	-2.076142359938888E+000
-7.5086331E-001	-2.063127087142689E+000
-7.4980748E-001	-2.050657827821041E+000
-7.4879503E-001	-2.037891935143207E+000
-7.4778837E-001	-2.025094711354594E+000
-7.4686867E-001	-2.012198869000986E+000
-7.4577659E-001	-1.999699739670312E+000
-7.4479127E-001	-1.987506575259332E+000
-7.4381465E-001	-1.974997363984585E+000
-7.4283189E-001	-1.962276384234428E+000
-7.4183679E-001	-1.949691469818170E+000
-7.4080241E-001	-1.936870848691019E+000
-7.3989224E-001	-1.924829529391396E+000
-7.3882973E-001	-1.911961274196702E+000
-7.3780870E-001	-1.899610346666087E+000
-7.3681366E-001	-1.887127725890391E+000
-7.3584253E-001	-1.874618805591165E+000
-7.3479587E-001	-1.862109619434243E+000
-7.3376852E-001	-1.849616106461596E+000
-7.3281258E-001	-1.836887396939858E+000
-7.3173058E-001	-1.824567962023945E+000
-7.3087049E-001	-1.811922942322710E+000
-7.2984368E-001	-1.799551649632669E+000
-7.2892588E-001	-1.787142917513847E+000
-7.2787732E-001	-1.774776040955828E+000
-7.2678840E-001	-1.762433328997268E+000
-7.2581780E-001	-1.749932823081807E+000
-7.2487384E-001	-1.737460568547249E+000
-7.2381133E-001	-1.724781341771877E+000
-7.2282344E-001	-1.712439899091363E+000
-7.2187036E-001	-1.699728661389258E+000
-7.2085947E-001	-1.688018372184075E+000
-7.1983165E-001	-1.675464685592381E+000
-7.1878612E-001	-1.663301070807158E+000
-7.1776295E-001	-1.650806723840766E+000
-7.1686667E-001	-1.638702423484236E+000
-7.1578646E-001	-1.626164568795089E+000
-7.1478254E-001	-1.614092526772758E+000
-7.1377808E-001	-1.601621320402188E+000
-7.1284091E-001	-1.589477095339028E+000
-7.1174920E-001	-1.577209407950122E+000
-7.1088398E-001	-1.565114562296216E+000
-7.0983034E-001	-1.553019934782277E+000
-7.0880502E-001	-1.540672683471680E+000
-7.0779204E-001	-1.528515643405690E+000
-7.0684725E-001	-1.516277565172424E+000
-7.0582557E-001	-1.504004993121107E+000
-7.0480865E-001	-1.491962981996714E+000
-7.0389700E-001	-1.479497144757602E+000
-7.0284539E-001	-1.467289741237646E+000
-7.0184892E-001	-1.455286584794518E+000
-7.0089537E-001	-1.443097995939080E+000
-6.9987506E-001	-1.430613394979726E+000
-6.9891578E-001	-1.418571805788414E+000
-6.9785041E-001	-1.406728826325249E+000
-6.9684219E-001	-1.394435119603720E+000
-6.9583786E-001	-1.382236380543977E+000
-6.9478118E-001	-1.370052347028698E+000
-6.9384956E-001	-1.358001000981254E+000
-6.9281542E-001	-1.345956096770587E+000
-6.9186103E-001	-1.333767672241839E+000
-6.9085175E-001	-1.321859220435751E+000
-6.8979508E-001	-1.309756295134624E+000
-6.8883002E-001	-1.297744312349938E+000
-6.8782252E-001	-1.285891652659133E+000
-6.8689913E-001	-1.273789724817981E+000
-6.8578273E-001	-1.261657354892278E+000
-6.8484706E-001	-1.249642755698273E+000
-6.8385005E-001	-1.238017788777746E+000
-6.8277258E-001	-1.225462800992846E+000
-6.8184823E-001	-1.213368638246147E+000
-6.8087137E-001	-1.201882618858857E+000
-6.7981696E-001	-1.189985516650673E+000
-6.7886484E-001	-1.178210986157260E+000
-6.7784965E-001	-1.166398158503902E+000
-6.7681336E-001	-1.154345300164145E+000
-6.7575127E-001	-1.142438674690553E+000
-6.7484581E-001	-1.130515423223926E+000
-6.7387223E-001	-1.119037350899248E+000
-6.7280650E-001	-1.106821034931468E+000
-6.7182797E-001	-1.095317279299106E+000
-6.7088234E-001	-1.083358414045966E+000
-6.6980255E-001	-1.071308943684452E+000
-6.6889131E-001	-1.059795367359012E+000
-6.6786098E-001	-1.047861186845992E+000
-6.6684610E-001	-1.035818584815220E+000
-6.6590583E-001	-1.024316225752788E+000
-6.6486806E-001	-1.012956383287722E+000
-6.6377920E-001	-1.000990064193804E+000
-6.6280258E-001	-9.894680790603161E-001
-6.6184562E-001	-9.776953245863318E-001
-6.6094226E-001	-9.662260744306792E-001
-6.5983361E-001	-9.543046495980683E-001
-6.5889889E-001	-9.428263899549836E-001
-6.5781271E-001	-9.314050348820491E-001
-6.5687650E-001	-9.197250316264451E-001
-6.5584368E-001	-9.077968173028914E-001
-6.5483356E-001	-8.965815709972791E-001
-6.5379459E-001	-8.845899412753404E-001
-6.5287161E-001	-8.727352864509275E-001
-6.5186977E-001	-8.611923716962302E-001
-6.5081608E-001	-8.497051444870447E-001
-6.4983153E-001	-8.381792276137896E-001
-6.4887768E-001	-8.267748611116872E-001
-6.4782894E-001	-8.155369982123375E-001
-6.4691150E-001	-8.036501544348322E-001
-6.4589202E-001	-7.921889729245919E-001
-6.4482862E-001	-7.805784703404814E-001
-6.4392316E-001	-7.694753135893357E-001
-6.4285541E-001	-7.581671231460803E-001
-6.4189231E-001	-7.465005775016778E-001
-6.4093196E-001	-7.348627490890172E-001
-6.3989407E-001	-7.237599282353013E-001
-6.3881749E-001	-7.122495460013560E-001
-6.3784915E-001	-7.005548206829886E-001
-6.3684136E-001	-6.894497129100330E-001
-6.3586724E-001	-6.780589258781184E-001
-6.3484883E-001	-6.672770582701748E-001
-6.3385653E-001	-6.553775087964738E-001
-6.3294631E-001	-6.441438288462376E-001
-6.3190138E-001	-6.332103012457977E-001
-6.3086641E-001	-6.216557131459322E-001
-6.2986600E-001	-6.107006753898370E-001
-6.2885207E-001	-5.990780163796323E-001
-6.2787521E-001	-5.874943844974032E-001
-6.2681711E-001	-5.759616674924324E-001
-6.2584656E-001	-5.650864977917474E-001
-6.2488735E-001	-5.538817064629646E-001
-6.2387162E-001	-5.428600219323609E-001
-6.2288785E-001	-5.319481572067275E-001
-6.2182277E-001	-5.206840777148818E-001
-6.2085640E-001	-5.096298590657673E-001
-6.1982447E-001	-4.983759599703328E-001
-6.1888754E-001	-4.873666356283195E-001
-6.1787409E-001	-4.761413495548990E-001
-6.1688149E-001	-4.652114628503714E-001
-6.1591393E-001	-4.543909035899016E-001
-6.1467856E-001	-4.423794046006506E-001
-6.1367369E-001	-4.297092908786411E-001
-6.1268455E-001	-4.186335953849323E-001
-6.1150128E-001	-4.078020560115210E-001
-6.1058807E-001	-3.966676159589380E-001
-6.0960674E-001	-3.856734441317347E-001
-6.0864717E-001	-3.745410812783669E-001
-6.0757732E-001	-3.639794473225884E-001
-6.0667026E-001	-3.530268382832965E-001
-6.0552400E-001	-3.418769574104308E-001
-6.0461819E-001	-3.310992701186071E-001
-6.0358870E-001	-3.203900216354270E-001
-6.0256952E-001	-3.098945097161430E-001
-6.0165393E-001	-2.988519097712854E-001
-6.0057884E-001	-2.880002057731712E-001
-5.9950393E-001	-2.770476919601256E-001
-5.9862727E-001	-2.663247927126511E-001
-5.9762162E-001	-2.553497631516715E-001
-5.9655154E-001	-2.445201215011283E-001
-5.9556115E-001	-2.341667856262230E-001
-5.9451449E-001	-2.231563990590741E-001
-5.9359062E-001	-2.125730300020372E-001
-5.9270191E-001	-2.020279365350248E-001
-5.9160590E-001	-1.914410249123142E-001
-5.9068018E-001	-1.804787424898291E-001
-5.8964342E-001	-1.699961024267527E-001
-5.8860505E-001	-1.594866536109261E-001
-5.8742768E-001	-1.497103312371708E-001
-5.8649439E-001	-1.386916439428378E-001
-5.8549613E-001	-1.278520479832812E-001
-5.8452183E-001	-1.172727384977938E-001
-5.8359247E-001	-1.070661369573194E-001
-5.8245343E-001	-9.622494191690140E-002
-5.8168763E-001	-8.612502536372013E-002
-5.8047152E-001	-7.582596079791315E-002
-5.7953221E-001	-6.509465066267661E-002
-5.7854342E-001	-5.468388583403150E-002
-5.7759440E-001	-4.436541295230928E-002
-5.7652915E-001	-3.283849506942660E-002
-5.7531887E-001	-2.094217512489260E-002
-5.7427484E-001	-1.054454216608538E-002
-5.7336903E-001	-1.846585119980072E-004
-5.7223481E-001	9.575462254428319E-003
-5.7112664E-001	2.007213271550701E-002
-5.7028598E-001	3.046384613890513E-002
-5.6914657E-001	4.075970791745920E-002
-5.6823832E-001	5.109944691260648E-002
-5.6729627E-001	6.123431657505241E-002
-5.6621826E-001	7.135085230348293E-002
-5.6520808E-001	8.184822564254740E-002
-5.6429625E-001	9.203438758634519E-002
-5.6321919E-001	1.022293016624942E-001
-5.6202251E-001	1.134360628419975E-001
-5.6101203E-001	1.249062850547958E-001
-5.5994713E-001	1.350199432043295E-001
-5.5891615E-001	1.446502810275114E-001
-5.5801314E-001	1.553893280110579E-001
-5.5700278E-001	1.659312818061427E-001
-5.5602551E-001	1.748286256118239E-001
-5.5491352E-001	1.850559645251399E-001
-5.5402404E-001	1.946324602597294E-001
-5.5288666E-001	2.047959689257872E-001
-5.5196112E-001	2.143828963812888E-001
-5.5107635E-001	2.240901653896339E-001
-5.4999083E-001	2.338025006535212E-001
-5.4887742E-001	2.437343980979039E-001
-5.4783440E-001	2.532739002188595E-001
-5.4689437E-001	2.629347138341541E-001
-5.4596496E-001	2.728159155144729E-001
-5.4501802E-001	2.822016804927487E-001
-5.4394668E-001	2.921917100437672E-001
-5.4305327E-001	3.015357304916346E-001
-5.4184389E-001	3.115594291852579E-001
-5.4100966E-001	3.207335402171623E-001
-5.3987986E-001	3.299286684918188E-001
-5.3888202E-001	3.392434407853414E-001
-5.3795463E-001	3.495750897408128E-001
-5.3698498E-001	3.591745100846451E-001
-5.3603762E-001	3.681126950239708E-001
-5.3499049E-001	3.775311845625673E-001
-5.3396022E-001	3.869876208266718E-001
-5.3298420E-001	3.962365435781305E-001
-5.3202122E-001	4.056703416853507E-001
-5.3092915E-001	4.149722643196583E-001
-5.2990395E-001	4.239368470454652E-001
-5.2889824E-001	4.335057341353066E-001
-5.2786219E-001	4.427302957133037E-001
-5.2693051E-001	4.521695832825365E-001
-5.2594525E-001	4.614196366730807E-001
-5.2501458E-001	4.702018593886397E-001
-5.2396220E-001	4.792355641170793E-001
-5.2296817E-001	4.882310430056132E-001
-5.2193469E-001	4.974738164218486E-001
-5.2100754E-001	5.061647451172266E-001
-5.1993829E-001	5.151822481707580E-001
-5.1890808E-001	5.244325861610726E-001
-5.1789433E-001	5.324037130232195E-001
-5.1688439E-001	5.415902321827613E-001
-5.1585984E-001	5.502818750424532E-001
-5.1496851E-001	5.596340328317007E-001
-5.1397234E-001	5.681799685774975E-001
-5.1282978E-001	5.768585354089737E-001
-5.1192272E-001	5.858570507693059E-001
-5.1095009E-001	5.944771272351295E-001
-5.0990754E-001	6.029711400883082E-001
-5.0881469E-001	6.116033393751703E-001
-5.0795978E-001	6.202723214183408E-001
-5.0678903E-001	6.286580120385796E-001
-5.0592571E-001	6.374269295483845E-001
-5.0496721E-001	6.461772395505965E-001
-5.0388992E-001	6.538589680222451E-001
-5.0294465E-001	6.629276994477804E-001
-5.0183892E-001	6.722065096279790E-001
-5.0113863E-001	6.796401121688107E-001
-4.9997994E-001	6.879542006386661E-001
-4.9883771E-001	6.963171292859798E-001
-4.9789488E-001	7.046029573237449E-001
-4.9684045E-001	7.129249200914778E-001
-4.9594086E-001	7.211923656548005E-001
-4.9487293E-001	7.294376746371949E-001
-4.9379918E-001	7.373049766239195E-001
-4.9292400E-001	7.455617199155501E-001
-4.9192885E-001	7.533107002576180E-001
-4.9099422E-001	7.615157003617981E-001
-4.8989204E-001	7.696599691878276E-001
-4.8894891E-001	7.776226681415714E-001
-4.8794323E-001	7.852980601579240E-001
-4.8700410E-001	7.932152074796166E-001
-4.8590994E-001	8.011072129011136E-001
-4.8496398E-001	8.087188336033986E-001
-4.8390087E-001	8.168359689966422E-001
-4.8291066E-001	8.248637642849417E-001
-4.8189294E-001	8.329696256466210E-001
-4.8090160E-001	8.404431199585938E-001
-4.7994599E-001	8.478419208140289E-001
-4.7891819E-001	8.554680796942513E-001
-4.7795326E-001	8.634926527738536E-001
-4.7675455E-001	8.715971549627923E-001
-4.7596896E-001	8.781939154675842E-001
-4.7494760E-001	8.857487104833179E-001
-4.7387400E-001	8.931230510826449E-001
-4.7280827E-001	9.008483214490273E-001
-4.7191757E-001	9.077909330802925E-001
-4.7090915E-001	9.150383098533830E-001
-4.6985409E-001	9.225290397646932E-001
-4.6881586E-001	9.295681786757934E-001
-4.6796396E-001	9.369257296676992E-001
-4.6703121E-001	9.437862266204853E-001
-4.6590760E-001	9.514455001939197E-001
-4.6489090E-001	9.588125800644889E-001
-4.6379128E-001	9.657085451101253E-001
-4.6291366E-001	9.732668645403990E-001
-4.6192133E-001	9.800678103886220E-001
-4.6088311E-001	9.873391595470675E-001
-4.5997909E-001	9.945654284071042E-001
-4.5875400E-001	1.001130256387921E+000
-4.5793906E-001	1.008357906498542E+000
-4.5683536E-001	1.014844176118023E+000
-4.5587632E-001	1.021796944516677E+000
-4.5485780E-001	1.028983386800704E+000
-4.5385450E-001	1.035744933204517E+000
-4.5291439E-001	1.043985129782447E+000
-4.5186061E-001	1.050412983166881E+000
-4.5085225E-001	1.056667201910854E+000
-4.4985956E-001	1.063474070556737E+000
-4.4887829E-001	1.069491943435438E+000
-4.4781718E-001	1.076406278406026E+000
-4.4682890E-001	1.082861217221733E+000
-4.4588733E-001	1.089761473753596E+000
-4.4476420E-001	1.097009417212351E+000
-4.4366923E-001	1.103946228684100E+000
-4.4276088E-001	1.110450905002356E+000
-4.4173461E-001	1.117253560986791E+000
-4.4065827E-001	1.124078073144766E+000
-4.3969542E-001	1.130034531432170E+000
-4.3872365E-001	1.136913881119752E+000
-4.3770698E-001	1.142618439411031E+000
-4.3664169E-001	1.149779895527494E+000
-4.3568516E-001	1.154790518460457E+000
-4.3470442E-001	1.161323341670649E+000
-4.3367019E-001	1.167707095267597E+000
-4.3269268E-001	1.173991310099765E+000
-4.3174839E-001	1.180212593803008E+000
-4.3071273E-001	1.185706280309848E+000
-4.2967752E-001	1.191875958470284E+000
-4.2863333E-001	1.197973393345585E+000
-4.2766631E-001	1.203929410488519E+000
-4.2669776E-001	1.210042111161681E+000
-4.2573079E-001	1.215551009304584E+000
-4.2469719E-001	1.221331618036384E+000
-4.2369890E-001	1.226852692939616E+000
-4.2280546E-001	1.232534735815786E+000
-4.2171830E-001	1.238210453755327E+000
-4.2070323E-001	1.244084454796930E+000
-4.1973838E-001	1.250136885226745E+000
-4.1871455E-001	1.255899534595232E+000
-4.1768065E-001	1.260865194378074E+000
-4.1673079E-001	1.266708389694646E+000
-4.1567990E-001	1.272129205365978E+000
-4.1473636E-001	1.277712376443326E+000
-4.1369277E-001	1.283224090654354E+000
-4.1269886E-001	1.288609243377492E+000
-4.1171396E-001	1.294341592463081E+000
-4.1072562E-001	1.299752344430460E+000
-4.0969428E-001	1.305313944402674E+000
-4.0876260E-001	1.310484424785331E+000
-4.0765622E-001	1.316170688921412E+000
-4.0668094E-001	1.320830959826706E+000
-4.0578452E-001	1.325954161998300E+000
-4.0468004E-001	1.331586824349045E+000
-4.0369853E-001	1.336714845012736E+000
-4.0267453E-001	1.343210935730621E+000
-4.0172458E-001	1.346991681306568E+000
-4.0070280E-001	1.352595313141741E+000
-3.9974847E-001	1.356946263324335E+000
-3.9864728E-001	1.362086638891942E+000
-3.9774171E-001	1.367977169238857E+000
-3.9661467E-001	1.371963629981987E+000
-3.9577934E-001	1.376819830876386E+000
-3.9470685E-001	1.382630615736602E+000
-3.9368626E-001	1.386435149444473E+000
-3.9271784E-001	1.392147460483628E+000
-3.9170355E-001	1.396293998454453E+000
-3.9080918E-001	1.401022487768415E+000
-3.8967547E-001	1.406429139754433E+000
-3.8868684E-001	1.410790499299768E+000
-3.8775009E-001	1.415157371097131E+000
-3.8668612E-001	1.419762439331045E+000
-3.8570860E-001	1.424669683117560E+000
-3.8467765E-001	1.429149684254771E+000
-3.8370603E-001	1.434342572701155E+000
-3.8270551E-001	1.438820542008791E+000
-3.8168919E-001	1.443011514704539E+000
-3.8073543E-001	1.448103746781236E+000
-3.7966806E-001	1.452310728392121E+000
-3.7879151E-001	1.457445553193487E+000
-3.7770522E-001	1.461718037868472E+000
-3.7672919E-001	1.465222918187028E+000
-3.7571374E-001	1.470532434130154E+000
-3.7469599E-001	1.475202993494314E+000
-3.7374690E-001	1.479525707938054E+000
-3.7273982E-001	1.483752340002361E+000
-3.7172300E-001	1.488236584045271E+000
-3.7074855E-001	1.492546347280346E+000
-3.6974642E-001	1.496859550814203E+000
-3.6874515E-001	1.502403321089567E+000
-3.6772931E-001	1.507211462491089E+000
-3.6667794E-001	1.510031048470722E+000
-3.6573911E-001	1.514098815895892E+000
-3.6467615E-001	1.517868503514261E+000
-3.6375463E-001	1.521908696837901E+000
-3.6272418E-001	1.527064464296460E+000
-3.6175984E-001	1.530515536527941E+000
-3.6071545E-001	1.534948184947005E+000
-3.5969561E-001	1.539639927722794E+000
-3.5872000E-001	1.544919920878279E+000
-3.5773432E-001	1.548565148744262E+000
-3.5674384E-001	1.551672674301598E+000
-3.5568660E-001	1.556202177510224E+000
-3.5469046E-001	1.559716953693645E+000
-3.5371301E-001	1.563277202071966E+000
-3.5273188E-001	1.567730170433174E+000
-3.5168156E-001	1.571537521757692E+000
-3.5077944E-001	1.575903373184026E+000
-3.4970719E-001	1.580415507709542E+000
-3.4871218E-001	1.586185564516161E+000
-3.4778377E-001	1.588375646758962E+000
-3.4673080E-001	1.592257673817659E+000
-3.4564510E-001	1.596334263141024E+000
-3.4476095E-001	1.599947086086988E+000
-3.4373239E-001	1.603213504784641E+000
-3.4271452E-001	1.606390231008173E+000
-3.4171316E-001	1.610799284168969E+000
-3.4066629E-001	1.614595251502813E+000
-3.3972946E-001	1.619281056817823E+000
-3.3871663E-001	1.621665046446850E+000
-3.3776927E-001	1.626004901473173E+000
-3.3670032E-001	1.630219623711724E+000
-3.3563250E-001	1.634461852411429E+000
-3.3470955E-001	1.637691577551539E+000
-3.3366585E-001	1.641635018716396E+000
-3.3274144E-001	1.645962575519530E+000
-3.3166954E-001	1.649699386071283E+000
-3.3075503E-001	1.653312218944229E+000
-3.2971013E-001	1.656452194408139E+000
-3.2883510E-001	1.660021251550425E+000
-3.2770997E-001	1.663506570542253E+000
-3.2677680E-001	1.667965470640738E+000
-3.2574672E-001	1.671173645942293E+000
-3.2480946E-001	1.675264434647694E+000
-3.2372284E-001	1.678963689340499E+000
-3.2272372E-001	1.681792230241829E+000
-3.2169917E-001	1.685910700223162E+000
-3.2075793E-001	1.689658905069034E+000
-3.1977177E-001	1.693648500850905E+000
-3.1871566E-001	1.696271219647045E+000
-3.1777608E-001	1.700275625895571E+000
-3.1673130E-001	1.704148536479036E+000
-3.1572279E-001	1.707722450747237E+000
-3.1474453E-001	1.710967255963215E+000
-3.1366482E-001	1.714432717749370E+000
-3.1275329E-001	1.717621320339696E+000
-3.1173742E-001	1.721462553573978E+000
-3.1082168E-001	1.725016309707254E+000
-3.0983442E-001	1.728215884423300E+000
-3.0879775E-001	1.732438618938126E+000
-3.0771953E-001	1.735437592491326E+000
-3.0676028E-001	1.739094406090400E+000
-3.0577517E-001	1.742070499393677E+000
-3.0473179E-001	1.746373408101110E+000
-3.0374745E-001	1.749965111966475E+000
-3.0273262E-001	1.752427278293510E+000
-3.0172423E-001	1.756683652431313E+000
-3.0073863E-001	1.759474466520327E+000
-2.9986507E-001	1.762945665529482E+000
-2.9872003E-001	1.766037156220825E+000
-2.9778495E-001	1.769698920625224E+000
-2.9677415E-001	1.773973637157006E+000
-2.9568800E-001	1.777072656921217E+000
-2.9472545E-001	1.779454430772205E+000
-2.9378974E-001	1.783440379356893E+000
-2.9270211E-001	1.787191266281942E+000
-2.9182696E-001	1.790497043618458E+000
-2.9069972E-001	1.793675280279594E+000
-2.8981322E-001	1.797244682474223E+000
-2.8870574E-001	1.799858890473843E+000
-2.8779671E-001	1.803482486693945E+000
-2.8672013E-001	1.806146928274053E+000
-2.8573334E-001	1.809538458508468E+000
-2.8479132E-001	1.813920473610912E+000
-2.8372887E-001	1.816297199300891E+000
-2.8272751E-001	1.819427361090977E+000
-2.8172204E-001	1.822369877386983E+000
-2.8077045E-001	1.825731111822254E+000
-2.7971765E-001	1.828852606040464E+000
-2.7874270E-001	1.832007415592673E+000
-2.7767506E-001	1.835607175501436E+000
-2.7673069E-001	1.839033788277046E+000
-2.7573621E-001	1.842042794382130E+000
-2.7475247E-001	1.845754742716416E+000
-2.7373311E-001	1.848512366414070E+000
-2.7277875E-001	1.851947623270515E+000
-2.7172378E-001	1.854845353136788E+000
-2.7077520E-001	1.858134827404115E+000
-2.6978627E-001	1.861545509486291E+000
-2.6874179E-001	1.864384183648786E+000
-2.6775619E-001	1.867831759706689E+000
-2.6673970E-001	1.871154522454303E+000
-2.6576859E-001	1.873795786235149E+000
-2.6477772E-001	1.877039122360713E+000
-2.6371220E-001	1.880305929040468E+000
-2.6272571E-001	1.883401452383481E+000
-2.6175323E-001	1.886338737275873E+000
-2.6080734E-001	1.889927694367032E+000
-2.5976241E-001	1.893468935326759E+000
-2.5864002E-001	1.896050204557399E+000
-2.5776839E-001	1.899134499607268E+000
-2.5679085E-001	1.902406624830888E+000
-2.5573772E-001	1.905752831035191E+000
-2.5472903E-001	1.908624527355037E+000
-2.5373957E-001	1.911463581988272E+000
-2.5272867E-001	1.915005636435971E+000
-2.5177386E-001	1.917867822227663E+000
-2.5072342E-001	1.921134972704065E+000
-2.4980938E-001	1.923986034536803E+000
-2.4875404E-001	1.926737386871263E+000
-2.4779627E-001	1.929583756316113E+000
-2.4672565E-001	1.933617607862866E+000
-2.4578720E-001	1.936358880113676E+000
-2.4475034E-001	1.938294476213088E+000
-2.4370541E-001	1.942063515109037E+000
-2.4274857E-001	1.945301045152349E+000
-2.4180470E-001	1.947692396740119E+000
-2.4073730E-001	1.951661444372597E+000
-2.3973514E-001	1.953982393216229E+000
-2.3873101E-001	1.957776495427996E+000
-2.3771344E-001	1.959956023704118E+000
-2.3672161E-001	1.963032430193753E+000
-2.3571159E-001	1.966306997394117E+000
-2.3469232E-001	1.969244404247512E+000
-2.3375256E-001	1.971662933756427E+000
-2.3272824E-001	1.975314812527770E+000
-2.3185766E-001	1.977915824287464E+000
-2.3082606E-001	1.981227538170264E+000
-2.2976632E-001	1.983594435232655E+000
-2.2870290E-001	1.986363365694324E+000
-2.2776195E-001	1.988013915311907E+000
-2.2668578E-001	1.991739313911509E+000
-2.2569706E-001	1.995623355386439E+000
-2.2482777E-001	1.998897960750597E+000
-2.2379787E-001	2.000937894538609E+000
-2.2279301E-001	2.003822055403834E+000
-2.2180124E-001	2.006692424724362E+000
-2.2075513E-001	2.008605168925378E+000
-2.1979736E-001	2.012355330641630E+000
-2.1875452E-001	2.013908853677028E+000
-2.1779659E-001	2.016997636744271E+000
-2.1686937E-001	2.021640814012954E+000
-2.1578154E-001	2.023792969937040E+000
-2.1480688E-001	2.026750568990360E+000
-2.1380751E-001	2.029250442153874E+000
-2.1279338E-001	2.033063602563999E+000
-2.1180165E-001	2.035852005084354E+000
-2.1083541E-001	2.038626714437100E+000
-2.0974812E-001	2.041108652026818E+000
-2.0881066E-001	2.044394221846702E+000
-2.0770906E-001	2.046869356599125E+000
-2.0680125E-001	2.050060189323226E+000
-2.0574796E-001	2.053233359698893E+000
-2.0475158E-001	2.055927234943269E+000
-2.0380189E-001	2.059225308010020E+000
-2.0278560E-001	2.061084936338432E+000
-2.0176567E-001	2.063345383162851E+000
-2.0078424E-001	2.065859832032405E+000
-1.9976488E-001	2.069016622448395E+000
-1.9881608E-001	2.072172216795110E+000
-1.9775389E-001	2.074346753747012E+000
-1.9672151E-001	2.078135000886746E+000
-1.9580936E-001	2.080949528901670E+000
-1.9477546E-001	2.083819440834308E+000
-1.9378014E-001	2.085669943303973E+000
-1.9277954E-001	2.088855937399241E+000
-1.9169065E-001	2.091805973253859E+000
-1.9071619E-001	2.093816943742606E+000
-1.8977009E-001	2.096751163955091E+000
-1.8884876E-001	2.099195262859755E+000
-1.8777248E-001	2.102014591848413E+000
-1.8674600E-001	2.105021161613635E+000
-1.8577740E-001	2.107603263846421E+000
-1.8480675E-001	2.110510833009529E+000
-1.8378109E-001	2.112196217256564E+000
-1.8281358E-001	2.115835015564535E+000
-1.8184522E-001	2.115450886112676E+000
-1.8074851E-001	2.116538243161312E+000
-1.7981327E-001	2.120979595671436E+000
-1.7879906E-001	2.123334461340196E+000
-1.7773214E-001	2.125611244641838E+000
-1.7684539E-001	2.129048782642244E+000
-1.7576693E-001	2.132577824923722E+000
-1.7478070E-001	2.135583213536652E+000
-1.7379224E-001	2.138440848500639E+000
-1.7280838E-001	2.140185530814861E+000
-1.7180635E-001	2.143501216896745E+000
-1.7077555E-001	2.146003787440272E+000
-1.6971068E-001	2.148701210264820E+000
-1.6880420E-001	2.151203818363616E+000
-1.6778286E-001	2.154281179386150E+000
-1.6681959E-001	2.157402249122109E+000
-1.6577406E-001	2.159904254545869E+000
-1.6482919E-001	2.162148903641430E+000
-1.6377600E-001	2.164728704150079E+000
-1.6289422E-001	2.167842395322520E+000
-1.6182210E-001	2.170038022928772E+000
-1.6080622E-001	2.172121987022741E+000
-1.5976113E-001	2.174897132618213E+000
-1.5887202E-001	2.177776830615814E+000
-1.5772845E-001	2.179925387104344E+000
-1.5677746E-001	2.182125535916217E+000
-1.5581697E-001	2.184719968173233E+000
-1.5481998E-001	2.186870742175316E+000
-1.5387398E-001	2.189713221818330E+000
-1.5280032E-001	2.192630027731258E+000
-1.5175368E-001	2.194516425607384E+000
-1.5082279E-001	2.197214805794356E+000
-1.4970942E-001	2.200318601396344E+000
-1.4888573E-001	2.202713242007639E+000
-1.4784007E-001	2.204922601210747E+000
-1.4683634E-001	2.207311883844710E+000
-1.4576383E-001	2.210263565458632E+000
-1.4484072E-001	2.212757270981953E+000
-1.4382987E-001	2.214603624410103E+000
-1.4278007E-001	2.217066326075130E+000
-1.4186585E-001	2.220006972519617E+000
-1.4083759E-001	2.222293096560016E+000
-1.3982131E-001	2.224755051511308E+000
-1.3878292E-001	2.226728472731093E+000
-1.3786973E-001	2.229669331952376E+000
-1.3677068E-001	2.232276971417452E+000
-1.3583638E-001	2.234749583848082E+000
-1.3480407E-001	2.237253475244401E+000
-1.3384269E-001	2.239383152789529E+000
-1.3293260E-001	2.241649416371967E+000
-1.3184999E-001	2.243883821423401E+000
-1.3087209E-001	2.246421748841257E+000
-1.2984771E-001	2.249157841496064E+000
-1.2888636E-001	2.251758125369189E+000
-1.2785541E-001	2.253692613983590E+000
-1.2677522E-001	2.256735805183862E+000
-1.2581411E-001	2.258563055484383E+000
-1.2480120E-001	2.261311094518071E+000
-1.2375654E-001	2.263847573321858E+000
-1.2287126E-001	2.265860819430271E+000
-1.2187596E-001	2.268725798085882E+000
-1.2078085E-001	2.271414229701573E+000
-1.1983763E-001	2.273691391779318E+000
-1.1884251E-001	2.275607346660572E+000
-1.1785232E-001	2.278048591073400E+000
-1.1685533E-001	2.280224551757178E+000
-1.1578960E-001	2.283111812615832E+000
-1.1474358E-001	2.286081041042934E+000
-1.1389425E-001	2.287308929970978E+000
-1.1279003E-001	2.290055697704044E+000
-1.1179376E-001	2.291856780096341E+000
-1.1077321E-001	2.294490315571972E+000
-1.0990489E-001	2.296712912900727E+000
-1.0881230E-001	2.298979561637950E+000
-1.0792284E-001	2.300572135658165E+000
-1.0681009E-001	2.302844077275113E+000
-1.0576403E-001	2.305404164172984E+000
-1.0485824E-001	2.308962873010724E+000
-1.0379218E-001	2.311412034534925E+000
-1.0283858E-001	2.312534826221293E+000
-1.0178473E-001	2.315187650698199E+000
-1.0086156E-001	2.317090750755953E+000
-9.9830396E-002	2.319423954519966E+000
-9.8824501E-002	2.321592515817393E+000
-9.7797818E-002	2.324006337871001E+000
-9.6793778E-002	2.326109467557192E+000
-9.5821604E-002	2.328169740460538E+000
-9.4786502E-002	2.330874142536622E+000
-9.3834616E-002	2.332694029642484E+000
-9.2852466E-002	2.334452881305303E+000
-9.1739394E-002	2.336635857877262E+000
-9.0788893E-002	2.339915020598299E+000
-8.9899436E-002	2.341959707990837E+000
-8.8750795E-002	2.343834684053732E+000
-8.7768197E-002	2.346622966781808E+000
-8.6839080E-002	2.348747739361393E+000
-8.5874647E-002	2.350643096280365E+000
-8.4764041E-002	2.352543118927211E+000
-8.3751142E-002	2.355315475552173E+000
-8.2788579E-002	2.357285261987230E+000
-8.1827134E-002	2.359436029913247E+000
-8.0860898E-002	2.361807114272212E+000
-7.9896085E-002	2.363677988754676E+000
-7.8788638E-002	2.365418596124215E+000
-7.7795871E-002	2.367858693831494E+000
-7.6815665E-002	2.369764590974919E+000
-7.5809099E-002	2.371742249638949E+000
-7.4837767E-002	2.373934476187934E+000
-7.3813424E-002	2.376126291755253E+000
-7.2830610E-002	2.378793449865451E+000
-7.1908496E-002	2.380692760977492E+000
-7.0871621E-002	2.382836647801867E+000
-6.9835797E-002	2.384985426785777E+000
-6.8814188E-002	2.386444774766762E+000
-6.7800559E-002	2.389232361864231E+000
-6.6923700E-002	2.391844707782617E+000
-6.5835498E-002	2.393582280035375E+000
-6.4843088E-002	2.396193034077077E+000
-6.3847445E-002	2.397328353866389E+000
-6.2873989E-002	2.399023338600440E+000
-6.1835270E-002	2.401321481408424E+000
-6.0819320E-002	2.403616388638806E+000
-5.9884045E-002	2.405060816694181E+000
-5.8860630E-002	2.405987194316893E+000
-5.7761077E-002	2.408582991472002E+000
-5.6862503E-002	2.411503341186934E+000
-5.5829328E-002	2.413858705766462E+000
-5.4816321E-002	2.416176485518612E+000
-5.3814232E-002	2.419026326250151E+000
-5.2780699E-002	2.419270543072610E+000
-5.1797107E-002	2.421590649143418E+000
-5.0837029E-002	2.424292013049126E+000
-4.9863789E-002	2.424872822351695E+000
-4.8847269E-002	2.427286196086147E+000
-4.7854725E-002	2.430269949414103E+000
-4.6881694E-002	2.432775221369113E+000
-4.5877274E-002	2.434206759212191E+000
-4.4894900E-002	2.436788833556697E+000
-4.3833215E-002	2.438131978666334E+000
-4.2733122E-002	2.440140417880478E+000
-4.1883837E-002	2.441984169621660E+000
-4.0870640E-002	2.444499485746584E+000
-3.9836522E-002	2.446640906786477E+000
-3.8813837E-002	2.447318125716617E+000
-3.7796490E-002	2.449796596335041E+000
-3.6778700E-002	2.452518499835772E+000
-3.5886217E-002	2.454302601072552E+000
-3.4818225E-002	2.456382011373840E+000
-3.3803832E-002	2.457549595170549E+000
-3.2836966E-002	2.459595519002598E+000
-3.1803470E-002	2.461265561481324E+000
-3.0814955E-002	2.464017567811183E+000
-2.9888162E-002	2.465476682026349E+000
-2.8877169E-002	2.467148331856290E+000
-2.7887596E-002	2.469145128572428E+000
-2.6829930E-002	2.471041423693290E+000
-2.5878323E-002	2.473429395092868E+000
-2.4802413E-002	2.475011591834056E+000
-2.3897370E-002	2.477382264328881E+000
-2.2887114E-002	2.479396414425636E+000
-2.1929361E-002	2.480924642748306E+000
-2.0857394E-002	2.482590651166138E+000
-1.9876391E-002	2.484884264016596E+000
-1.8900393E-002	2.487019789715615E+000
-1.7841790E-002	2.488463206488262E+000
-1.6898334E-002	2.490576813066447E+000
-1.5827091E-002	2.492087804884818E+000
-1.4925166E-002	2.493217291263960E+000
-1.3842851E-002	2.495226453851771E+000
-1.2840973E-002	2.497593386857597E+000
-1.1951514E-002	2.499470075005668E+000
-1.0789063E-002	2.501415231161653E+000
-9.8745823E-003	2.502469711557573E+000
-8.8878395E-003	2.504873209381941E+000
-7.8224614E-003	2.505949746127482E+000
-6.8422221E-003	2.508488259933607E+000
-5.9030019E-003	2.509987570500526E+000
-4.8348596E-003	2.511032028882582E+000
-3.8696795E-003	2.513229857164406E+000
-2.8588269E-003	2.514930778756934E+000
-1.8725003E-003	2.516784110830891E+000
-8.7528903E-004	2.518711635635952E+000
1.7985867E-004	2.519980697643618E+000
1.1316480E-003	2.521583723525197E+000
2.1577079E-003	2.524654449964011E+000
3.1750237E-003	2.526140886380585E+000
4.1307039E-003	2.527503802820497E+000
5.1758555E-003	2.529100148766126E+000
6.1477600E-003	2.531531159892737E+000
6.6669006E-003	2.532380561033884E+000
6.9303629E-003	2.533787190914154E+000