EC-Lab ASCII FILE
Nb header lines : 63                          

Linear Sweep Voltammetry

Run on channel : 6 (SN 13765)
User : 
Electrode connection : standard
Potential control : Ewe
Ewe ctrl range : min = -2.50 V, max = 2.50 V
Ewe,I filtering : <None>
Safety Limits :
	Do not start on E overload
Channel : Floating
Acquisition started on : 07/13/2026 15:24:47.088
Technique started on : 07/13/2026 15:24:48.085
Loaded Setting File :  C:\Users\EEM-620\Desktop\Wade\20260630\LSV 1mg MoS2 1_C06.mpr
Saved on :
	File : N719_0713-d-5_C06.mpr
	Directory : C:\Users\EEM-620\Desktop\Wade\abao\20260713\
	Host : 192.109.209.200
Device : VSP-300 (SN 0025)
Address : 192.109.209.129
EC-LAB for windows v11.62 (software)
Internet server v27.00 (firmware)
Command interpretor v12.02 (firmware)
Electrode material : Au/Pd
Initial state : 
Electrolyte : NaCl (0.2M)
Comments : Fe(CN)63-/Fe(CN)64- 5.10-3 M
Cable : ULC
Reference electrode : SCE Saturated Calomel Electrode (0.241 V)
Electrode surface area : 0.001 cm2
Characteristic mass : 0.001 g
Equivalent Weight : 0.000 g/eq.
Density : 0.000 g/cm3
Volume (V) : 0.001 cm3
Cycle Definition : Charge/Discharge alternance
tR (h:m:s)          0:00:5.0000         
dER/dt (mV/h)       0.0                 
dER (mV)            0                   
dtR (s)             0.0500              
dE/dt               10.000              
dE/dt unit          mV/s                
Ei (V)              -0.800              
vs.                 Ref                 
EL (V)              0.010               
vs.                 Ref                 
record              <I>                 
dI                  0.000               
unit dI             uA                  
tI (s)              0.0000              
step percent        50                  
N                   10                  
E range min (V)     -2.500              
E range max (V)     2.500               
I Range             Auto                
I Range min         Unset               
I Range max         Unset               
I Range init        Unset               
Bandwidth           8                   

Ewe/V	<I>/mA	
-4.4267362E-001	0.000000000000000E+000
-4.4258961E-001	0.000000000000000E+000
-4.4237578E-001	0.000000000000000E+000
-4.4234145E-001	0.000000000000000E+000
-4.4245219E-001	0.000000000000000E+000
-4.4252852E-001	0.000000000000000E+000
-4.4273853E-001	0.000000000000000E+000
-4.4254762E-001	0.000000000000000E+000
-4.4287983E-001	0.000000000000000E+000
-4.4291034E-001	0.000000000000000E+000
-4.4240636E-001	0.000000000000000E+000
-4.4300961E-001	0.000000000000000E+000
-4.4276145E-001	0.000000000000000E+000
-4.4277290E-001	0.000000000000000E+000
-4.4276908E-001	0.000000000000000E+000
-4.4289127E-001	0.000000000000000E+000
-4.4313565E-001	0.000000000000000E+000
-4.4308981E-001	0.000000000000000E+000
-4.4328073E-001	0.000000000000000E+000
-4.4311655E-001	0.000000000000000E+000
-4.4280344E-001	0.000000000000000E+000
-4.4306308E-001	0.000000000000000E+000
-4.4341439E-001	0.000000000000000E+000
-4.4318524E-001	0.000000000000000E+000
-4.4316998E-001	0.000000000000000E+000
-4.4317383E-001	0.000000000000000E+000
-4.4322345E-001	0.000000000000000E+000
-4.4309363E-001	0.000000000000000E+000
-4.4350600E-001	0.000000000000000E+000
-4.4339907E-001	0.000000000000000E+000
-4.4332272E-001	0.000000000000000E+000
-4.4295236E-001	0.000000000000000E+000
-4.4346401E-001	0.000000000000000E+000
-4.4342202E-001	0.000000000000000E+000
-4.4360912E-001	0.000000000000000E+000
-4.4336092E-001	0.000000000000000E+000
-4.4354036E-001	0.000000000000000E+000
-4.4367784E-001	0.000000000000000E+000
-4.4325399E-001	0.000000000000000E+000
-4.4357091E-001	0.000000000000000E+000
-4.4340673E-001	0.000000000000000E+000
-4.4363201E-001	0.000000000000000E+000
-4.4328839E-001	0.000000000000000E+000
-4.4351745E-001	0.000000000000000E+000
-4.4356710E-001	0.000000000000000E+000
-4.4367403E-001	0.000000000000000E+000
-4.4384965E-001	0.000000000000000E+000
-4.4358620E-001	0.000000000000000E+000
-4.4369310E-001	0.000000000000000E+000
-4.4367781E-001	0.000000000000000E+000
-4.4399095E-001	0.000000000000000E+000
-4.4399095E-001	0.000000000000000E+000
-4.4393364E-001	0.000000000000000E+000
-4.4408256E-001	0.000000000000000E+000
-4.4379619E-001	0.000000000000000E+000
-4.4384584E-001	0.000000000000000E+000
-4.4384202E-001	0.000000000000000E+000
-4.4405967E-001	0.000000000000000E+000
-4.4370839E-001	0.000000000000000E+000
-4.4376948E-001	0.000000000000000E+000
-4.4386113E-001	0.000000000000000E+000
-4.4871798E-001	0.000000000000000E+000
-4.4929072E-001	0.000000000000000E+000
-7.8909588E-001	-2.766624528428785E+000
-7.8869385E-001	-2.747016155655970E+000
-7.8784281E-001	-2.721162748005646E+000
-7.8671980E-001	-2.700561537786768E+000
-7.8575784E-001	-2.682746720958157E+000
-7.8475910E-001	-2.666565871625018E+000
-7.8380728E-001	-2.651828498476091E+000
-7.8272676E-001	-2.638163583167684E+000
-7.8180182E-001	-2.625244343722304E+000
-7.8080422E-001	-2.612676927612888E+000
-7.7980095E-001	-2.600764753926755E+000
-7.7876371E-001	-2.589080087840557E+000
-7.7773678E-001	-2.577881776348320E+000
-7.7675152E-001	-2.566814620684482E+000
-7.7578646E-001	-2.556046091847954E+000
-7.7476531E-001	-2.545784710182085E+000
-7.7376074E-001	-2.535895663060607E+000
-7.7277833E-001	-2.525521005745290E+000
-7.7175754E-001	-2.515562506461572E+000
-7.7081352E-001	-2.505654759422018E+000
-7.6981789E-001	-2.495532444229816E+000
-7.6882136E-001	-2.486112856754552E+000
-7.6783031E-001	-2.476528418875137E+000
-7.6680356E-001	-2.467055564125380E+000
-7.6579279E-001	-2.456462870869377E+000
-7.6478785E-001	-2.447520079196714E+000
-7.6377839E-001	-2.438438235885574E+000
-7.6274979E-001	-2.429093844084822E+000
-7.6170212E-001	-2.419469847627309E+000
-7.6083076E-001	-2.410170018396997E+000
-7.5984454E-001	-2.401167640255549E+000
-7.5882131E-001	-2.391530754569549E+000
-7.5775576E-001	-2.382099848654535E+000
-7.5678879E-001	-2.372706826914239E+000
-7.5577146E-001	-2.362950061578394E+000
-7.5480711E-001	-2.354339656454549E+000
-7.5385660E-001	-2.345249661600460E+000
-7.5283736E-001	-2.335787324717746E+000
-7.5182849E-001	-2.326829228136280E+000
-7.5081038E-001	-2.317908831169916E+000
-7.4977499E-001	-2.308546709241689E+000
-7.4882007E-001	-2.299692414149090E+000
-7.4788713E-001	-2.290691439094950E+000
-7.4681008E-001	-2.281423531472683E+000
-7.4586976E-001	-2.272031501763394E+000
-7.4481791E-001	-2.263378462407793E+000
-7.4381340E-001	-2.254233875208428E+000
-7.4284673E-001	-2.245302839135675E+000
-7.4182397E-001	-2.236136235661075E+000
-7.4086064E-001	-2.227413407354441E+000
-7.3980677E-001	-2.218588349167950E+000
-7.3887658E-001	-2.209231589969134E+000
-7.3782337E-001	-2.200157442302626E+000
-7.3686218E-001	-2.191319200175780E+000
-7.3587704E-001	-2.182411713006498E+000
-7.3483318E-001	-2.173666405181088E+000
-7.3380244E-001	-2.164528379561718E+000
-7.3284471E-001	-2.155968166078038E+000
-7.3183161E-001	-2.147150764034858E+000
-7.3084688E-001	-2.137884167333439E+000
-7.2982699E-001	-2.129380875006497E+000
-7.2885817E-001	-2.120257535190490E+000
-7.2779262E-001	-2.111454464771123E+000
-7.2677797E-001	-2.102104137948661E+000
-7.2583646E-001	-2.093552849634934E+000
-7.2485197E-001	-2.085336187923389E+000
-7.2384715E-001	-2.076765850206556E+000
-7.2289366E-001	-2.067677465301976E+000
-7.2183955E-001	-2.059231999019779E+000
-7.2093189E-001	-2.050324698890933E+000
-7.1992171E-001	-2.041653336750130E+000
-7.1893829E-001	-2.033052432592265E+000
-7.1783268E-001	-2.024540501998793E+000
-7.1685493E-001	-2.014850090499269E+000
-7.1587712E-001	-2.006693817675110E+000
-7.1491420E-001	-1.998476272163007E+000
-7.1388036E-001	-1.990142874419689E+000
-7.1288651E-001	-1.981408011306213E+000
-7.1179730E-001	-1.972783580485411E+000
-7.1084732E-001	-1.964127018495841E+000
-7.0986193E-001	-1.955381533062019E+000
-7.0880944E-001	-1.946593879851113E+000
-7.0785952E-001	-1.938606496210451E+000
-7.0678848E-001	-1.928932303631745E+000
-7.0588905E-001	-1.920969404003138E+000
-7.0476842E-001	-1.912566515582576E+000
-7.0380747E-001	-1.904103544851138E+000
-7.0281315E-001	-1.895964112523703E+000
-7.0181221E-001	-1.887576262432123E+000
-7.0081854E-001	-1.878906574238222E+000
-6.9986242E-001	-1.870250278711517E+000
-6.9883704E-001	-1.861857354365000E+000
-6.9780445E-001	-1.853492183817760E+000
-6.9688314E-001	-1.844233396776534E+000
-6.9587135E-001	-1.836607680828486E+000
-6.9475961E-001	-1.828379646771481E+000
-6.9385254E-001	-1.820087120404850E+000
-6.9283491E-001	-1.812155089168641E+000
-6.9190133E-001	-1.803969281139196E+000
-6.9084561E-001	-1.795094935994307E+000
-6.8985981E-001	-1.786773211426190E+000
-6.8886560E-001	-1.778103743652618E+000
-6.8795371E-001	-1.769705282593216E+000
-6.8684250E-001	-1.761478374953626E+000
-6.8583763E-001	-1.753323685659090E+000
-6.8487996E-001	-1.745109710704394E+000
-6.8385088E-001	-1.736978942321407E+000
-6.8276793E-001	-1.728976849188675E+000
-6.8180156E-001	-1.720619650350676E+000
-6.8080431E-001	-1.712187808696875E+000
-6.7983860E-001	-1.704201739686514E+000
-6.7885113E-001	-1.695427017355406E+000
-6.7784405E-001	-1.687093679551726E+000
-6.7686182E-001	-1.678948064814193E+000
-6.7594850E-001	-1.670715280429071E+000
-6.7487794E-001	-1.662655369551093E+000
-6.7385054E-001	-1.654613358245392E+000
-6.7280394E-001	-1.646410281183542E+000
-6.7182177E-001	-1.638459668391279E+000
-6.7073679E-001	-1.630305893197095E+000
-6.6983742E-001	-1.622065450858191E+000
-6.6885436E-001	-1.613989999448812E+000
-6.6781569E-001	-1.605646912844581E+000
-6.6686994E-001	-1.597447086539525E+000
-6.6584808E-001	-1.589846204276448E+000
-6.6483724E-001	-1.581887645009452E+000
-6.6381705E-001	-1.573567884939687E+000
-6.6279978E-001	-1.565643251494119E+000
-6.6182452E-001	-1.557485199907033E+000
-6.6088575E-001	-1.549694063624849E+000
-6.5989560E-001	-1.541523853385893E+000
-6.5881717E-001	-1.533915289626786E+000
-6.5782434E-001	-1.525398818569048E+000
-6.5681839E-001	-1.517747806730096E+000
-6.5573645E-001	-1.509814378253268E+000
-6.5489960E-001	-1.501798682190746E+000
-6.5384060E-001	-1.494062465236141E+000
-6.5281856E-001	-1.486156242410711E+000
-6.5180123E-001	-1.478054839151874E+000
-6.5084201E-001	-1.470186202614389E+000
-6.4984953E-001	-1.462273645265753E+000
-6.4882827E-001	-1.454200687231847E+000
-6.4780575E-001	-1.445791286036922E+000
-6.4682311E-001	-1.439004607355553E+000
-6.4584464E-001	-1.430928301066167E+000
-6.4479113E-001	-1.422941510462103E+000
-6.4380765E-001	-1.415236729382171E+000
-6.4278775E-001	-1.407510218520962E+000
-6.4182889E-001	-1.399863905100922E+000
-6.4085490E-001	-1.392005768095913E+000
-6.3976771E-001	-1.384265057328674E+000
-6.3882113E-001	-1.376004660157143E+000
-6.3790578E-001	-1.367526669175106E+000
-6.3690370E-001	-1.360211106638110E+000
-6.3587135E-001	-1.353238322116711E+000
-6.3483548E-001	-1.345422044173947E+000
-6.3390446E-001	-1.337773931385188E+000
-6.3293117E-001	-1.329716217462667E+000
-6.3187212E-001	-1.322131068590121E+000
-6.3087338E-001	-1.314460722936520E+000
-6.2987703E-001	-1.307068816075721E+000
-6.2885392E-001	-1.298994213258679E+000
-6.2794185E-001	-1.290847767282413E+000
-6.2682128E-001	-1.283311247687646E+000
-6.2589729E-001	-1.276122938037731E+000
-6.2485766E-001	-1.268868319414280E+000
-6.2383986E-001	-1.261136375444359E+000
-6.2283671E-001	-1.253921302104438E+000
-6.2183017E-001	-1.245841902163292E+000
-6.2091017E-001	-1.237630258390338E+000
-6.1985809E-001	-1.230763283454706E+000
-6.1886424E-001	-1.222573317035483E+000
-6.1787611E-001	-1.215327123350962E+000
-6.1684114E-001	-1.207988260106910E+000
-6.1592019E-001	-1.200552907392932E+000
-6.1479723E-001	-1.193125982703872E+000
-6.1397153E-001	-1.185759037181182E+000
-6.1287773E-001	-1.178098194990993E+000
-6.1182660E-001	-1.170676564509956E+000
-6.1090070E-001	-1.163262095716263E+000
-6.0990691E-001	-1.155903952403195E+000
-6.0888892E-001	-1.147729845156425E+000
-6.0781533E-001	-1.140685066442799E+000
-6.0679203E-001	-1.133601098010937E+000
-6.0589010E-001	-1.125973218320088E+000
-6.0494763E-001	-1.118952124069136E+000
-6.0388100E-001	-1.111563104722237E+000
-6.0282683E-001	-1.104000704439164E+000
-6.0184336E-001	-1.096536388965664E+000
-6.0085249E-001	-1.089007513390646E+000
-5.9983814E-001	-1.081820612977056E+000
-5.9892595E-001	-1.073991207474917E+000
-5.9783030E-001	-1.066857197356443E+000
-5.9690404E-001	-1.059641749664554E+000
-5.9583503E-001	-1.052082872363151E+000
-5.9492558E-001	-1.045295207588754E+000
-5.9387970E-001	-1.038241056805768E+000
-5.9299743E-001	-1.030986108023814E+000
-5.9191382E-001	-1.023542386514169E+000
-5.9088296E-001	-1.016020566122364E+000
-5.8990121E-001	-1.008419864431575E+000
-5.8890861E-001	-1.001108085943596E+000
-5.8787519E-001	-9.941134675809344E-001
-5.8693588E-001	-9.868576443857595E-001
-5.8593845E-001	-9.799467843991740E-001
-5.8490348E-001	-9.728902818759622E-001
-5.8392256E-001	-9.656553262913661E-001
-5.8287531E-001	-9.585791962842150E-001
-5.8190304E-001	-9.511573062271417E-001
-5.8088833E-001	-9.440171337789973E-001
-5.7993376E-001	-9.362616639722265E-001
-5.7894987E-001	-9.290790290590607E-001
-5.7794148E-001	-9.226764295664083E-001
-5.7688206E-001	-9.152109471184229E-001
-5.7590675E-001	-9.080262281859648E-001
-5.7486349E-001	-9.010902834987178E-001
-5.7387471E-001	-8.941591446874311E-001
-5.7291996E-001	-8.870336991114325E-001
-5.7192570E-001	-8.794619252008467E-001
-5.7090831E-001	-8.727378805202468E-001
-5.6987160E-001	-8.650524283795882E-001
-5.6899917E-001	-8.584336406654778E-001
-5.6792265E-001	-8.518376155859890E-001
-5.6690258E-001	-8.442338290376128E-001
-5.6588161E-001	-8.376183072449983E-001
-5.6491619E-001	-8.304854647980794E-001
-5.6393659E-001	-8.237057826549234E-001
-5.6298602E-001	-8.162841206347490E-001
-5.6187403E-001	-8.091171402524451E-001
-5.6081492E-001	-8.023271097077274E-001
-5.5989105E-001	-7.947986468120867E-001
-5.5894780E-001	-7.877073103055707E-001
-5.5790108E-001	-7.813194724558681E-001
-5.5693322E-001	-7.745554117416908E-001
-5.5593562E-001	-7.678151945147818E-001
-5.5494404E-001	-7.603820910746357E-001
-5.5386204E-001	-7.535960389370189E-001
-5.5289865E-001	-7.466483692624171E-001
-5.5192256E-001	-7.401052429168296E-001
-5.5086660E-001	-7.334330909782008E-001
-5.4994297E-001	-7.265339021626511E-001
-5.4894954E-001	-7.192073311932656E-001
-5.4790550E-001	-7.121970048519186E-001
-5.4692549E-001	-7.050210532770294E-001
-5.4591662E-001	-6.986137580264518E-001
-5.4490751E-001	-6.916684933282706E-001
-5.4398125E-001	-6.846479096712859E-001
-5.4303330E-001	-6.776109152921901E-001
-5.4187304E-001	-6.711722686196930E-001
-5.4094070E-001	-6.642037767380993E-001
-5.3985888E-001	-6.567182602981720E-001
-5.3892231E-001	-6.501568736577461E-001
-5.3789765E-001	-6.433471586209061E-001
-5.3692025E-001	-6.367106314196622E-001
-5.3588510E-001	-6.301133541597261E-001
-5.3493738E-001	-6.236496079674732E-001
-5.3393120E-001	-6.170447339062335E-001
-5.3294903E-001	-6.097745816050857E-001
-5.3191507E-001	-6.032310132349571E-001
-5.3086907E-001	-5.960090591537721E-001
-5.2992958E-001	-5.891188993636092E-001
-5.2889639E-001	-5.829799045759270E-001
-5.2789509E-001	-5.766350039177451E-001
-5.2682555E-001	-5.699517150857933E-001
-5.2586699E-001	-5.625640614372633E-001
-5.2485996E-001	-5.561519734285483E-001
-5.2391392E-001	-5.495426189154387E-001
-5.2294892E-001	-5.425704054597920E-001
-5.2183717E-001	-5.358068434590555E-001
-5.2093351E-001	-5.291296726575609E-001
-5.1988733E-001	-5.224724367609848E-001
-5.1894820E-001	-5.161824066329892E-001
-5.1790255E-001	-5.093466630550448E-001
-5.1689202E-001	-5.029849599065557E-001
-5.1592940E-001	-4.967832004444461E-001
-5.1493901E-001	-4.898313141117505E-001
-5.1390457E-001	-4.832015236684128E-001
-5.1282048E-001	-4.762705857003169E-001
-5.1181561E-001	-4.703132628152762E-001
-5.1095212E-001	-4.624065861391733E-001
-5.0991935E-001	-4.559421510332167E-001
-5.0865120E-001	-4.492237626532116E-001
-5.0759912E-001	-4.420784296536908E-001
-5.0659579E-001	-4.355419823830888E-001
-5.0557476E-001	-4.290067352201712E-001
-5.0459719E-001	-4.224793454287212E-001
-5.0359589E-001	-4.156280953988993E-001
-5.0267935E-001	-4.091230437990667E-001
-5.0164473E-001	-4.028103179815741E-001
-5.0065094E-001	-3.949274506971792E-001
-4.9971980E-001	-3.890971754691748E-001
-4.9868831E-001	-3.833127833074990E-001
-4.9764675E-001	-3.765537575991074E-001
-4.9665195E-001	-3.700154256255992E-001
-4.9558854E-001	-3.636507216013145E-001
-4.9453717E-001	-3.571206403344309E-001
-4.9367777E-001	-3.508485377907249E-001
-4.9255779E-001	-3.444402883933111E-001
-4.9162421E-001	-3.378231615793945E-001
-4.9053690E-001	-3.308491029612712E-001
-4.8969239E-001	-3.244043942540880E-001
-4.8853061E-001	-3.187340291010008E-001
-4.8752135E-001	-3.122682023639789E-001
-4.8666024E-001	-3.057436284919564E-001
-4.8564777E-001	-2.992517694968870E-001
-4.8465428E-001	-2.927247370785908E-001
-4.8360538E-001	-2.863665843313499E-001
-4.8270729E-001	-2.797671481966972E-001
-4.8159680E-001	-2.730917052561328E-001
-4.8068208E-001	-2.663454437904340E-001
-4.7960126E-001	-2.601790525778025E-001
-4.7856483E-001	-2.539445382965662E-001
-4.7755954E-001	-2.474887747731485E-001
-4.7652522E-001	-2.413963481300949E-001
-4.7559392E-001	-2.350703365355273E-001
-4.7459507E-001	-2.285546081623548E-001
-4.7368971E-001	-2.224540762189369E-001
-4.7257432E-001	-2.159466961906626E-001
-4.7170082E-001	-2.092267693951724E-001
-4.7067627E-001	-2.028390160865250E-001
-4.6955532E-001	-1.967474160831548E-001
-4.6866098E-001	-1.906242224870730E-001
-4.6762249E-001	-1.841664008140841E-001
-4.6669704E-001	-1.778057616084441E-001
-4.6551472E-001	-1.718344353311865E-001
-4.6452793E-001	-1.655685002743092E-001
-4.6356526E-001	-1.596536329660597E-001
-4.6263218E-001	-1.524673856242940E-001
-4.6160606E-001	-1.453830854001419E-001
-4.6065420E-001	-1.393675938613156E-001
-4.5957941E-001	-1.334059692539823E-001
-4.5857674E-001	-1.276463540098456E-001
-4.5770404E-001	-1.214014567776402E-001
-4.5661008E-001	-1.148972409880824E-001
-4.5556659E-001	-1.086720215087688E-001
-4.5458046E-001	-1.024168895837967E-001
-4.5356116E-001	-9.637180273421020E-002
-4.5260695E-001	-9.018853485273781E-002
-4.5159224E-001	-8.253687784644148E-002
-4.5060730E-001	-7.678331418342352E-002
-4.4959253E-001	-7.090556618172628E-002
-4.4856900E-001	-6.488344808005619E-002
-4.4761628E-001	-5.882128035753131E-002
-4.4665846E-001	-5.254345448446551E-002
-4.4544911E-001	-4.581948471604858E-002
-4.4433403E-001	-3.888583213470320E-002
-4.4326824E-001	-3.272087073420227E-002
-4.4236994E-001	-2.588230911512958E-002
-4.4131887E-001	-1.918682131993898E-002
-4.4035232E-001	-1.355043428118097E-002
-4.3936649E-001	-8.024395484460017E-003
-4.3836820E-001	-1.224027964360209E-003
-4.3733805E-001	4.852862639460574E-003
-4.3629357E-001	1.059562417234430E-002
-4.3536872E-001	1.668433331953434E-002
-4.3436396E-001	2.315765118022833E-002
-4.3333587E-001	2.919596437951212E-002
-4.3241137E-001	3.566692368110158E-002
-4.3136007E-001	4.178335835568686E-002
-4.3030161E-001	4.803046005502065E-002
-4.2931798E-001	5.381988187286035E-002
-4.2834088E-001	6.012065831061764E-002
-4.2733201E-001	6.613903386621833E-002
-4.2629108E-001	7.228381736893885E-002
-4.2520884E-001	7.827843893610043E-002
-4.2419827E-001	8.466061868670355E-002
-4.2342675E-001	9.104390882162550E-002
-4.2225406E-001	9.816586955311525E-002
-4.2128089E-001	1.035146968680674E-001
-4.2014277E-001	1.100123925634779E-001
-4.1895831E-001	1.168314053470061E-001
-4.1804105E-001	1.230128124114821E-001
-4.1684499E-001	1.283712282824689E-001
-4.1605851E-001	1.351487320951288E-001
-4.1507930E-001	1.408170063772967E-001
-4.1398183E-001	1.469490988945876E-001
-4.1313055E-001	1.532315716871784E-001
-4.1212252E-001	1.597271588872426E-001
-4.1106108E-001	1.652063759144100E-001
-4.0995967E-001	1.711987242344082E-001
-4.0895474E-001	1.770803435636612E-001
-4.0804631E-001	1.831130300382497E-001
-4.0700278E-001	1.885000669431904E-001
-4.0595445E-001	1.946486905907037E-001
-4.0513059E-001	2.008436225175014E-001
-4.0409112E-001	2.065911432038305E-001
-4.0298042E-001	2.133788597873518E-001
-4.0196672E-001	2.195560273481600E-001
-4.0098581E-001	2.248573469825917E-001
-3.9996716E-001	2.304587763285744E-001
-3.9910483E-001	2.366053224470455E-001
-3.9803699E-001	2.421394283365883E-001
-3.9703855E-001	2.484749270327126E-001
-3.9600381E-001	2.543762647354881E-001
-3.9498258E-001	2.592669344265692E-001
-3.9396185E-001	2.651219898489896E-001
-3.9302292E-001	2.731885611575677E-001
-3.9192164E-001	2.789059178903672E-001
-3.9089409E-001	2.840691234019621E-001
-3.8995919E-001	2.898682016965419E-001
-3.8904154E-001	2.956788844808393E-001
-3.8789687E-001	3.013241269315283E-001
-3.8705412E-001	3.076185632949433E-001
-3.8595572E-001	3.135487831853050E-001
-3.8505355E-001	3.192946052661652E-001
-3.8405675E-001	3.251358910417252E-001
-3.8311046E-001	3.319756936419882E-001
-3.8190219E-001	3.377168188906374E-001
-3.8107026E-001	3.427103091406969E-001
-3.8003862E-001	3.481704492673838E-001
-3.7890080E-001	3.544410265706173E-001
-3.7802762E-001	3.600482742231570E-001
-3.7688702E-001	3.661232159507479E-001
-3.7591803E-001	3.720856128191485E-001
-3.7489370E-001	3.778506854170813E-001
-3.7408951E-001	3.831054992904797E-001
-3.7294766E-001	3.895178898755054E-001
-3.7194112E-001	3.949308571841321E-001
-3.7104401E-001	4.006968012976424E-001
-3.7004831E-001	4.069271999652735E-001
-3.6896551E-001	4.123425382410364E-001
-3.6787993E-001	4.179561338214972E-001
-3.6687866E-001	4.234794840492553E-001
-3.6604974E-001	4.298831812415368E-001
-3.6503804E-001	4.356437359281156E-001
-3.6400247E-001	4.412069086123398E-001
-3.6292940E-001	4.473505500913397E-001
-3.6195412E-001	4.531083937596381E-001
-3.6097583E-001	4.580559528398291E-001
-3.6007538E-001	4.641444503576588E-001
-3.5911503E-001	4.692630146940557E-001
-3.5803828E-001	4.750503526517624E-001
-3.5713017E-001	4.812077953031779E-001
-3.5587156E-001	4.867179875296568E-001
-3.5494483E-001	4.930653849409692E-001
-3.5403562E-001	4.984127377548280E-001
-3.5298938E-001	5.052885595985046E-001
-3.5209405E-001	5.098283360486913E-001
-3.5104698E-001	5.156674560297425E-001
-3.5005105E-001	5.212754776908284E-001
-3.4897035E-001	5.270333320493064E-001
-3.4799555E-001	5.323678719362741E-001
-3.4697625E-001	5.378835384768497E-001
-3.4592670E-001	5.438306790497789E-001
-3.4490776E-001	5.495094125055604E-001
-3.4385878E-001	5.561300685836219E-001
-3.4301800E-001	5.612554562535630E-001
-3.4193271E-001	5.667761547697898E-001
-3.4109136E-001	5.725527228442626E-001
-3.3997744E-001	5.777732774404623E-001
-3.3898687E-001	5.827868450433007E-001
-3.3794448E-001	5.891893004515660E-001
-3.3706194E-001	5.950059498084315E-001
-3.3596066E-001	5.998665564865986E-001
-3.3502412E-001	6.060470408863483E-001
-3.3397564E-001	6.122663648871389E-001
-3.3300066E-001	6.172751836754675E-001
-3.3185598E-001	6.228586916156393E-001
-3.3094895E-001	6.282089440845455E-001
-3.3007607E-001	6.340975829710596E-001
-3.2903576E-001	6.393782577166958E-001
-3.2805368E-001	6.448472000409344E-001
-3.2690582E-001	6.506388800011753E-001
-3.2605919E-001	6.562226838259768E-001
-3.2495376E-001	6.616642872096890E-001
-3.2401514E-001	6.677815306379831E-001
-3.2299605E-001	6.724461120449803E-001
-3.2203752E-001	6.782519371774818E-001
-3.2108080E-001	6.840561704917114E-001
-3.2001632E-001	6.892586927171080E-001
-3.1888235E-001	6.946504841546632E-001
-3.1798902E-001	7.002628598086265E-001
-3.1695020E-001	7.060868336508701E-001
-3.1599095E-001	7.111277886856655E-001
-3.1513509E-001	7.168997557902796E-001
-3.1404260E-001	7.235353349673552E-001
-3.1298256E-001	7.281277031122420E-001
-3.1201297E-001	7.328120703222574E-001
-3.1100199E-001	7.382606043031927E-001
-3.0993149E-001	7.440761558107649E-001
-3.0902854E-001	7.491821929536471E-001
-3.0798385E-001	7.553349402215801E-001
-3.0691338E-001	7.607460050767563E-001
-3.0602953E-001	7.660358809624555E-001
-3.0491623E-001	7.722871526385937E-001
-3.0398363E-001	7.791729163648906E-001
-3.0304188E-001	7.827555923550200E-001
-3.0211046E-001	7.879674093866775E-001
-3.0104336E-001	7.932679712408532E-001
-3.0011475E-001	7.982278060581951E-001
-2.9899919E-001	8.037829154895384E-001
-2.9796502E-001	8.094624468715175E-001
-2.9707283E-001	8.147241607032463E-001
-2.9594517E-001	8.202739686325735E-001
-2.9498073E-001	8.266219888437405E-001
-2.9398277E-001	8.326491494145625E-001
-2.9309845E-001	8.371854904625149E-001
-2.9188272E-001	8.426534660316536E-001
-2.9101345E-001	8.474358607221504E-001
-2.9000732E-001	8.524576104073649E-001
-2.8903028E-001	8.576767675926522E-001
-2.8804362E-001	8.638642744885523E-001
-2.8706408E-001	8.687906902840052E-001
-2.8611138E-001	8.747103488831627E-001
-2.8510377E-001	8.805939199195940E-001
-2.8383359E-001	8.855677897918079E-001
-2.8295726E-001	8.908731893256836E-001
-2.8195387E-001	8.963428407355565E-001
-2.8100985E-001	9.009826436405852E-001
-2.8003225E-001	9.059332316672375E-001
-2.7902061E-001	9.119523181407552E-001
-2.7800620E-001	9.173054124101030E-001
-2.7706286E-001	9.228670970985231E-001
-2.7596211E-001	9.279810166745261E-001
-2.7495301E-001	9.336464829721987E-001
-2.7410772E-001	9.388165818872274E-001
-2.7296945E-001	9.437782153211272E-001
-2.7188617E-001	9.490407802660474E-001
-2.7104315E-001	9.541029052601928E-001
-2.7002746E-001	9.589800949173926E-001
-2.6896912E-001	9.647416560678739E-001
-2.6798382E-001	9.701670616589197E-001
-2.6690218E-001	9.755865848726666E-001
-2.6598224E-001	9.804396841986822E-001
-2.6501465E-001	9.877497901519163E-001
-2.6396698E-001	9.919030088241455E-001
-2.6300561E-001	9.968550449574458E-001
-2.6206884E-001	1.001723169452615E+000
-2.6098868E-001	1.006909258525686E+000
-2.5992385E-001	1.012265072341103E+000
-2.5911391E-001	1.017608613051744E+000
-2.5809103E-001	1.022861140193765E+000
-2.5702158E-001	1.028186688801521E+000
-2.5610745E-001	1.033096687937222E+000
-2.5490022E-001	1.039055103367121E+000
-2.5400779E-001	1.044290383468034E+000
-2.5292087E-001	1.049002024310610E+000
-2.5198835E-001	1.054535472282655E+000
-2.5099587E-001	1.059209701726557E+000
-2.4989550E-001	1.064452539301581E+000
-2.4900159E-001	1.069250739972905E+000
-2.4795662E-001	1.074863352859339E+000
-2.4704577E-001	1.079859227631932E+000
-2.4596518E-001	1.085620536572404E+000
-2.4505422E-001	1.090700755276442E+000
-2.4397182E-001	1.096034986691341E+000
-2.4294296E-001	1.102026954380253E+000
-2.4176528E-001	1.108153069598799E+000
-2.4087329E-001	1.113142412017893E+000
-2.3975669E-001	1.118165855239890E+000
-2.3876834E-001	1.123557232596262E+000
-2.3777369E-001	1.128870582414999E+000
-2.3681636E-001	1.134649516294060E+000
-2.3579475E-001	1.139171976458142E+000
-2.3475084E-001	1.143948039660849E+000
-2.3377863E-001	1.149420013112382E+000
-2.3277892E-001	1.153782112041004E+000
-2.3178913E-001	1.159357083202513E+000
-2.3076519E-001	1.164245390519223E+000
-2.2979322E-001	1.169283758710934E+000
-2.2878520E-001	1.174746652306229E+000
-2.2777350E-001	1.179604756226960E+000
-2.2678232E-001	1.185247868989354E+000
-2.2580524E-001	1.190380492282134E+000
-2.2479045E-001	1.195673241482907E+000
-2.2385474E-001	1.200099860628455E+000
-2.2285241E-001	1.204906930802044E+000
-2.2181201E-001	1.210107644138560E+000
-2.2078946E-001	1.215095417643033E+000
-2.1981008E-001	1.220301182457700E+000
-2.1887341E-001	1.225704773244933E+000
-2.1776368E-001	1.230107456859617E+000
-2.1677667E-001	1.235177165518208E+000
-2.1578911E-001	1.239696996444453E+000
-2.1483953E-001	1.245339866589620E+000
-2.1377105E-001	1.250332932643312E+000
-2.1279743E-001	1.255350481437045E+000
-2.1183410E-001	1.260378103289339E+000
-2.1083541E-001	1.265651450664906E+000
-2.0987447E-001	1.270654434711387E+000
-2.0885454E-001	1.275524406935332E+000
-2.0782532E-001	1.280134592481236E+000
-2.0685036E-001	1.285366412346340E+000
-2.0574711E-001	1.289862871997886E+000
-2.0481524E-001	1.295148531733840E+000
-2.0386755E-001	1.300437943719814E+000
-2.0279875E-001	1.305394440475439E+000
-2.0182718E-001	1.310261368613550E+000
-2.0084651E-001	1.315237086013404E+000
-1.9980478E-001	1.320447361579653E+000
-1.9874798E-001	1.324720628559592E+000
-1.9787949E-001	1.329643847657629E+000
-1.9687553E-001	1.334897912624815E+000
-1.9585288E-001	1.339246351685791E+000
-1.9477297E-001	1.344448341745767E+000
-1.9377610E-001	1.349438203291760E+000
-1.9290894E-001	1.354110940600986E+000
-1.9182834E-001	1.359055974073524E+000
-1.9085237E-001	1.364398968440515E+000
-1.8984284E-001	1.369187267152245E+000
-1.8878505E-001	1.373336101748242E+000
-1.8786754E-001	1.378620661105277E+000
-1.8681389E-001	1.383297196278974E+000
-1.8583530E-001	1.388501415977355E+000
-1.8484893E-001	1.393043226803897E+000
-1.8387803E-001	1.397962608961031E+000
-1.8276988E-001	1.402881710785600E+000
-1.8174489E-001	1.407207745092885E+000
-1.8079711E-001	1.412319211634220E+000
-1.7973858E-001	1.416848593929871E+000
-1.7881285E-001	1.421331984163437E+000
-1.7780574E-001	1.426786670764252E+000
-1.7678218E-001	1.431271970134095E+000
-1.7579769E-001	1.436208505321440E+000
-1.7483532E-001	1.441157150439444E+000
-1.7381917E-001	1.445899653627922E+000
-1.7278315E-001	1.450497632639278E+000
-1.7180929E-001	1.454637944083643E+000
-1.7078170E-001	1.459986624756340E+000
-1.6979533E-001	1.464458768290495E+000
-1.6887492E-001	1.470131824463955E+000
-1.6781297E-001	1.473918977848911E+000
-1.6684188E-001	1.479142095893623E+000
-1.6577612E-001	1.483814240539421E+000
-1.6481860E-001	1.488497678328439E+000
-1.6376877E-001	1.492674829507319E+000
-1.6280061E-001	1.498483353566748E+000
-1.6184202E-001	1.504754514191990E+000
-1.6074279E-001	1.508728918240017E+000
-1.5978852E-001	1.512572102370591E+000
-1.5885952E-001	1.517103785855902E+000
-1.5780760E-001	1.521474927111907E+000
-1.5688266E-001	1.525778399363326E+000
-1.5581529E-001	1.530507124270549E+000
-1.5475591E-001	1.535404938928508E+000
-1.5376212E-001	1.539359747029017E+000
-1.5283638E-001	1.544104279605328E+000
-1.5175727E-001	1.548886795424753E+000
-1.5080577E-001	1.553722203598888E+000
-1.4981484E-001	1.558356497850685E+000
-1.4877860E-001	1.563609782192444E+000
-1.4788333E-001	1.567446993797802E+000
-1.4682342E-001	1.572476518098958E+000
-1.4585823E-001	1.577244207538946E+000
-1.4484239E-001	1.582151094637624E+000
-1.4385235E-001	1.585681040253903E+000
-1.4281699E-001	1.590746714285139E+000
-1.4175136E-001	1.595342893360849E+000
-1.4080599E-001	1.599725500025132E+000
-1.3977358E-001	1.604180583247433E+000
-1.3877383E-001	1.609522503809803E+000
-1.3782835E-001	1.616131365851118E+000
-1.3667439E-001	1.619130619974048E+000
-1.3577713E-001	1.623605717909651E+000
-1.3478202E-001	1.628232178588704E+000
-1.3374956E-001	1.632161209428752E+000
-1.3284175E-001	1.636581537019853E+000
-1.3186377E-001	1.641394776050689E+000
-1.3084194E-001	1.645231070893782E+000
-1.2978950E-001	1.649456959286447E+000
-1.2881254E-001	1.654555829310858E+000
-1.2773810E-001	1.658059334589382E+000
-1.2680978E-001	1.662777583453437E+000
-1.2573752E-001	1.668182394846720E+000
-1.2472101E-001	1.672545910985390E+000
-1.2377500E-001	1.677267593874870E+000
-1.2279361E-001	1.681675625896006E+000
-1.2179280E-001	1.686359574121472E+000
-1.2075345E-001	1.691112218958374E+000
-1.1983996E-001	1.695932580365081E+000
-1.1886226E-001	1.700275780150186E+000
-1.1785126E-001	1.704639616219893E+000
-1.1683539E-001	1.708663294712707E+000
-1.1586087E-001	1.713329352714389E+000
-1.1484350E-001	1.717008532233386E+000
-1.1383803E-001	1.721445004145306E+000
-1.1276284E-001	1.725497511184454E+000
-1.1175938E-001	1.730867214776858E+000
-1.1078381E-001	1.734596791366737E+000
-1.0985737E-001	1.739391500298819E+000
-1.0882481E-001	1.743967953655456E+000
-1.0789081E-001	1.748185689250626E+000
-1.0682163E-001	1.752265183943649E+000
-1.0570104E-001	1.756281399616496E+000
-1.0478570E-001	1.759998717793714E+000
-1.0378683E-001	1.765015970605208E+000
-1.0278703E-001	1.768930121428436E+000
-1.0178770E-001	1.773418655550037E+000
-1.0078838E-001	1.776234751537011E+000
-9.9835068E-002	1.781967269601651E+000
-9.8837443E-002	1.785667605974062E+000
-9.7833447E-002	1.790039340993861E+000
-9.6713603E-002	1.795013898500690E+000
-9.5808454E-002	1.798746695948970E+000
-9.4906949E-002	1.801796791297365E+000
-9.3797073E-002	1.806683704808908E+000
-9.2797309E-002	1.810953459805916E+000
-9.1803126E-002	1.815290875636698E+000
-9.0770438E-002	1.820678282667100E+000
-8.9786366E-002	1.825783359507721E+000
-8.8810667E-002	1.828924725937640E+000
-8.7847963E-002	1.833236731864801E+000
-8.6825930E-002	1.836708738572064E+000
-8.5842773E-002	1.840112239196223E+000
-8.4804557E-002	1.844812611738844E+000
-8.3789960E-002	1.848745356003449E+000
-8.2763366E-002	1.852598929074251E+000
-8.1779830E-002	1.856542373421018E+000
-8.0865778E-002	1.860354667736427E+000
-7.9827227E-002	1.864580467198081E+000
-7.8826606E-002	1.867668489063227E+000
-7.7827051E-002	1.871721191814650E+000
-7.6794200E-002	1.876313614923568E+000
-7.5844519E-002	1.879593676163090E+000
-7.4870422E-002	1.884404945428727E+000
-7.3827133E-002	1.888113922802322E+000
-7.2778001E-002	1.892419544634990E+000
-7.1811981E-002	1.897113660419437E+000
-7.0917159E-002	1.900813381011368E+000
-6.9808431E-002	1.904762601962798E+000
-6.8858735E-002	1.909112482987071E+000
-6.7865416E-002	1.913133028304861E+000
-6.6878095E-002	1.916300244629380E+000
-6.5831468E-002	1.920267358146343E+000
-6.4750440E-002	1.924355938174031E+000
-6.3783176E-002	1.927893723326701E+000
-6.2831767E-002	1.932664296417329E+000
-6.1752606E-002	1.936093385457617E+000
-6.0868327E-002	1.939982337256268E+000
-5.9867077E-002	1.944394951065388E+000
-5.8869187E-002	1.947871631759106E+000
-5.7825565E-002	1.951985783047149E+000
-5.6907482E-002	1.955664119786679E+000
-5.5819180E-002	1.959544710616555E+000
-5.4816540E-002	1.963509281752284E+000
-5.3856656E-002	1.967709217910411E+000
-5.2867550E-002	1.971084332275224E+000
-5.1830206E-002	1.974112510405204E+000
-5.0818991E-002	1.977727257267198E+000
-4.9872488E-002	1.982644624828140E+000
-4.8827332E-002	1.986917449644316E+000
-4.7834996E-002	1.990764210897467E+000
-4.6811055E-002	1.994533480221534E+000
-4.5897003E-002	1.998857854141131E+000
-4.4802178E-002	2.003330151206356E+000
-4.3863125E-002	2.006331507254529E+000
-4.2767055E-002	2.009730118292353E+000
-4.1818622E-002	2.015734202827697E+000
-4.0861517E-002	2.018572075775371E+000
-3.9844163E-002	2.021822201708954E+000
-3.8851935E-002	2.025238495805029E+000
-3.7760638E-002	2.028832844562011E+000
-3.6800127E-002	2.032746737202007E+000
-3.5808161E-002	2.036348876418739E+000
-3.4882501E-002	2.039726470079687E+000
-3.3862803E-002	2.044747073065349E+000
-3.2803670E-002	2.048430242677764E+000
-3.1786926E-002	2.052353593486323E+000
-3.0797986E-002	2.055624031358295E+000
-2.9904578E-002	2.059141601971920E+000
-2.8844289E-002	2.062495541793332E+000
-2.7912628E-002	2.065325974038360E+000
-2.6875498E-002	2.068223743575070E+000
-2.5937507E-002	2.073917095307948E+000
-2.4891933E-002	2.077139197400339E+000
-2.3831582E-002	2.081515353387168E+000
-2.2880962E-002	2.084510039124226E+000
-2.1887358E-002	2.088842141683465E+000
-2.0909665E-002	2.091940697397138E+000
-1.9907998E-002	2.096294401972379E+000
-1.8865816E-002	2.098863546495078E+000
-1.7882887E-002	2.102906159863970E+000
-1.6899394E-002	2.106025295401068E+000
-1.5879698E-002	2.110170851978985E+000
-1.4860592E-002	2.113868198885061E+000
-1.3883366E-002	2.117611415408284E+000
-1.2818701E-002	2.120764956982042E+000
-1.1905806E-002	2.124115946366977E+000
-1.0911037E-002	2.127907228966556E+000
-9.8465821E-003	2.131868080408488E+000
-8.8556996E-003	2.135272345735480E+000
-7.8875851E-003	2.138513249655560E+000
-6.8844352E-003	2.142079152166836E+000
-5.8442219E-003	2.145828919294921E+000
-4.9481355E-003	2.149640511307449E+000
-3.8858012E-003	2.152518566283923E+000
-2.9016233E-003	2.156277847743230E+000
-1.8587119E-003	2.159818657570417E+000
-7.8768044E-004	2.163139592718195E+000
1.1274515E-004	2.166514319891455E+000
1.1155264E-003	2.170008229436714E+000
2.1161307E-003	2.172244270366644E+000
3.1457995E-003	2.176645566446453E+000
4.0950668E-003	2.180158847184098E+000
5.2025835E-003	2.184070507133448E+000
6.1909817E-003	2.188092032660471E+000
6.8845437E-003	2.188713133335114E+000
6.7776316E-003	2.189191490411758E+000