EC-Lab ASCII FILE
Nb header lines : 63                          

Linear Sweep Voltammetry

Run on channel : 6 (SN 13765)
User : 
Electrode connection : standard
Potential control : Ewe
Ewe ctrl range : min = -2.50 V, max = 2.50 V
Ewe,I filtering : <None>
Safety Limits :
	Do not start on E overload
Channel : Floating
Acquisition started on : 07/13/2026 15:26:30.873
Technique started on : 07/13/2026 15:26:31.870
Loaded Setting File :  C:\Users\EEM-620\Desktop\Wade\20260630\LSV 1mg MoS2 1_C06.mpr
Saved on :
	File : N719_0713-d-1_C06.mpr
	Directory : C:\Users\EEM-620\Desktop\Wade\abao\20260713\
	Host : 192.109.209.200
Device : VSP-300 (SN 0025)
Address : 192.109.209.129
EC-LAB for windows v11.62 (software)
Internet server v27.00 (firmware)
Command interpretor v12.02 (firmware)
Electrode material : Au/Pd
Initial state : 
Electrolyte : NaCl (0.2M)
Comments : Fe(CN)63-/Fe(CN)64- 5.10-3 M
Cable : ULC
Reference electrode : SCE Saturated Calomel Electrode (0.241 V)
Electrode surface area : 0.001 cm2
Characteristic mass : 0.001 g
Equivalent Weight : 0.000 g/eq.
Density : 0.000 g/cm3
Volume (V) : 0.001 cm3
Cycle Definition : Charge/Discharge alternance
tR (h:m:s)          0:00:5.0000         
dER/dt (mV/h)       0.0                 
dER (mV)            0                   
dtR (s)             0.0500              
dE/dt               10.000              
dE/dt unit          mV/s                
Ei (V)              -0.800              
vs.                 Ref                 
EL (V)              0.010               
vs.                 Ref                 
record              <I>                 
dI                  0.000               
unit dI             uA                  
tI (s)              0.0000              
step percent        50                  
N                   10                  
E range min (V)     -2.500              
E range max (V)     2.500               
I Range             Auto                
I Range min         Unset               
I Range max         Unset               
I Range init        Unset               
Bandwidth           8                   

Ewe/V	<I>/mA	
-4.2906904E-001	0.000000000000000E+000
-4.2911869E-001	0.000000000000000E+000
-4.2889339E-001	0.000000000000000E+000
-4.2890486E-001	0.000000000000000E+000
-4.2883611E-001	0.000000000000000E+000
-4.2861086E-001	0.000000000000000E+000
-4.2899650E-001	0.000000000000000E+000
-4.2921034E-001	0.000000000000000E+000
-4.2889723E-001	0.000000000000000E+000
-4.2890105E-001	0.000000000000000E+000
-4.2881703E-001	0.000000000000000E+000
-4.2906904E-001	0.000000000000000E+000
-4.2919505E-001	0.000000000000000E+000
-4.2879796E-001	0.000000000000000E+000
-4.2916450E-001	0.000000000000000E+000
-4.2886668E-001	0.000000000000000E+000
-4.2925996E-001	0.000000000000000E+000
-4.2915687E-001	0.000000000000000E+000
-4.2885521E-001	0.000000000000000E+000
-4.2910722E-001	0.000000000000000E+000
-4.2909959E-001	0.000000000000000E+000
-4.2948908E-001	0.000000000000000E+000
-4.2929050E-001	0.000000000000000E+000
-4.2914921E-001	0.000000000000000E+000
-4.2910340E-001	0.000000000000000E+000
-4.2913395E-001	0.000000000000000E+000
-4.2931342E-001	0.000000000000000E+000
-4.2875975E-001	0.000000000000000E+000
-4.2887428E-001	0.000000000000000E+000
-4.2896214E-001	0.000000000000000E+000
-4.2915305E-001	0.000000000000000E+000
-4.2909577E-001	0.000000000000000E+000
-4.2908815E-001	0.000000000000000E+000
-4.2884758E-001	0.000000000000000E+000
-4.2914543E-001	0.000000000000000E+000
-4.2887813E-001	0.000000000000000E+000
-4.2894685E-001	0.000000000000000E+000
-4.2879793E-001	0.000000000000000E+000
-4.2896977E-001	0.000000000000000E+000
-4.2907667E-001	0.000000000000000E+000
-4.2927140E-001	0.000000000000000E+000
-4.2929816E-001	0.000000000000000E+000
-4.2902705E-001	0.000000000000000E+000
-4.2919123E-001	0.000000000000000E+000
-4.2932105E-001	0.000000000000000E+000
-4.2943561E-001	0.000000000000000E+000
-4.2924467E-001	0.000000000000000E+000
-4.2917594E-001	0.000000000000000E+000
-4.2917216E-001	0.000000000000000E+000
-4.2920271E-001	0.000000000000000E+000
-4.2882851E-001	0.000000000000000E+000
-4.2926759E-001	0.000000000000000E+000
-4.2925614E-001	0.000000000000000E+000
-4.2897359E-001	0.000000000000000E+000
-4.2898884E-001	0.000000000000000E+000
-4.2907667E-001	0.000000000000000E+000
-4.2903468E-001	0.000000000000000E+000
-4.2927143E-001	0.000000000000000E+000
-4.2949286E-001	0.000000000000000E+000
-4.2911866E-001	0.000000000000000E+000
-4.2897740E-001	0.000000000000000E+000
-4.3375027E-001	0.000000000000000E+000
-4.3414739E-001	0.000000000000000E+000
-7.8916079E-001	-2.991990348567134E+000
-7.8873450E-001	-2.972954053442690E+000
-7.8766203E-001	-2.947825615052825E+000
-7.8669244E-001	-2.927702153446493E+000
-7.8569937E-001	-2.910520863442230E+000
-7.8478771E-001	-2.894526793724964E+000
-7.8372622E-001	-2.880055310825526E+000
-7.8272974E-001	-2.866226965535478E+000
-7.8177440E-001	-2.853333148691384E+000
-7.8081167E-001	-2.840855441159661E+000
-7.7967942E-001	-2.829046802107250E+000
-7.7875221E-001	-2.817690960235076E+000
-7.7777821E-001	-2.806613427069450E+000
-7.7680123E-001	-2.795430670408451E+000
-7.7579349E-001	-2.784848282734551E+000
-7.7484381E-001	-2.774321135823378E+000
-7.7374816E-001	-2.763916051831043E+000
-7.7281678E-001	-2.753978701377353E+000
-7.7177906E-001	-2.743825433430855E+000
-7.7076906E-001	-2.733864836204564E+000
-7.6982957E-001	-2.723622754216191E+000
-7.6877356E-001	-2.713799194329301E+000
-7.6775855E-001	-2.703775698838950E+000
-7.6678616E-001	-2.694106993575886E+000
-7.6575929E-001	-2.684250154704969E+000
-7.6479203E-001	-2.674733337880795E+000
-7.6375568E-001	-2.665065982827423E+000
-7.6278883E-001	-2.655209770909060E+000
-7.6180971E-001	-2.645651337593164E+000
-7.6082414E-001	-2.635926251610116E+000
-7.5981414E-001	-2.626669196342975E+000
-7.5885576E-001	-2.616981821335656E+000
-7.5789082E-001	-2.607073598989736E+000
-7.5679547E-001	-2.597781590565482E+000
-7.5581306E-001	-2.588145802418396E+000
-7.5484610E-001	-2.578758502723998E+000
-7.5378168E-001	-2.569148369748412E+000
-7.5271410E-001	-2.559738714661869E+000
-7.5191772E-001	-2.550095829422823E+000
-7.5083274E-001	-2.540704003710673E+000
-7.4976695E-001	-2.531197263962685E+000
-7.4882936E-001	-2.521890805827255E+000
-7.4782819E-001	-2.512536773848614E+000
-7.4678671E-001	-2.503263744767061E+000
-7.4587464E-001	-2.493973197484443E+000
-7.4480253E-001	-2.484250548609302E+000
-7.4381024E-001	-2.474984826589068E+000
-7.4276632E-001	-2.465720814411284E+000
-7.4176842E-001	-2.456115278803086E+000
-7.4077487E-001	-2.447116365587259E+000
-7.3979568E-001	-2.437742469211418E+000
-7.3885518E-001	-2.428272683645130E+000
-7.3780978E-001	-2.418937387013862E+000
-7.3682928E-001	-2.410114333309508E+000
-7.3587865E-001	-2.400561736799659E+000
-7.3475295E-001	-2.391120371995150E+000
-7.3381609E-001	-2.382097051375446E+000
-7.3285550E-001	-2.372834388668682E+000
-7.3185658E-001	-2.363695850250902E+000
-7.3080236E-001	-2.354571897674504E+000
-7.2982317E-001	-2.345297126596138E+000
-7.2886413E-001	-2.335952563418285E+000
-7.2785330E-001	-2.326834004234385E+000
-7.2682971E-001	-2.317709419360131E+000
-7.2581863E-001	-2.308482431979090E+000
-7.2487575E-001	-2.299360707954126E+000
-7.2384924E-001	-2.290677487459639E+000
-7.2279179E-001	-2.281314099276511E+000
-7.2193050E-001	-2.272307910301059E+000
-7.2087342E-001	-2.263263164160087E+000
-7.1982831E-001	-2.254148880364717E+000
-7.1883351E-001	-2.245007731020447E+000
-7.1787649E-001	-2.235681549319704E+000
-7.1677649E-001	-2.226463377751692E+000
-7.1586055E-001	-2.217533133648070E+000
-7.1483248E-001	-2.208788859987918E+000
-7.1391362E-001	-2.199775217583890E+000
-7.1282202E-001	-2.190795496934001E+000
-7.1186358E-001	-2.181766924072150E+000
-7.1084416E-001	-2.173011952528242E+000
-7.0980752E-001	-2.164052092366745E+000
-7.0877892E-001	-2.154722248919470E+000
-7.0784694E-001	-2.145458653845161E+000
-7.0682430E-001	-2.136891301859308E+000
-7.0587051E-001	-2.127983608317347E+000
-7.0484942E-001	-2.118903434938854E+000
-7.0381361E-001	-2.110345605622831E+000
-7.0283914E-001	-2.101660749544969E+000
-7.0186412E-001	-2.092968467485013E+000
-7.0083004E-001	-2.084356626150793E+000
-6.9989198E-001	-2.075413001348020E+000
-6.9888169E-001	-2.066522994251159E+000
-6.9789910E-001	-2.057420750183095E+000
-6.9684923E-001	-2.048591825145255E+000
-6.9586325E-001	-2.039374061756664E+000
-6.9479245E-001	-2.031108930155085E+000
-6.9381660E-001	-2.022242565793787E+000
-6.9283980E-001	-2.013311426120779E+000
-6.9174099E-001	-2.004725218371096E+000
-6.9081903E-001	-1.995835017742834E+000
-6.8980277E-001	-1.987223019202554E+000
-6.8888795E-001	-1.978468555122701E+000
-6.8784308E-001	-1.970209501407773E+000
-6.8678039E-001	-1.961167898718951E+000
-6.8587583E-001	-1.952702905695466E+000
-6.8484008E-001	-1.943802980913059E+000
-6.8387806E-001	-1.935328553120307E+000
-6.8292356E-001	-1.926993380857461E+000
-6.8189698E-001	-1.917899143364696E+000
-6.8094385E-001	-1.909423447317547E+000
-6.7987883E-001	-1.900747480897266E+000
-6.7888480E-001	-1.892198904520939E+000
-6.7782396E-001	-1.883447614256980E+000
-6.7684025E-001	-1.874786570585016E+000
-6.7585862E-001	-1.866766372488602E+000
-6.7483360E-001	-1.857722136433472E+000
-6.7388952E-001	-1.849501175553709E+000
-6.7287505E-001	-1.841128410840476E+000
-6.7181748E-001	-1.832176539357055E+000
-6.7083848E-001	-1.823883931302134E+000
-6.6978902E-001	-1.815174705176434E+000
-6.6890079E-001	-1.807089468119317E+000
-6.6794950E-001	-1.798510656464429E+000
-6.6682112E-001	-1.790191679365099E+000
-6.6586995E-001	-1.781802889649515E+000
-6.6488630E-001	-1.773115596235847E+000
-6.6384685E-001	-1.764575432572098E+000
-6.6280210E-001	-1.756432807831857E+000
-6.6185313E-001	-1.747944238539902E+000
-6.6081393E-001	-1.739377794166412E+000
-6.5990257E-001	-1.731037075320881E+000
-6.5893799E-001	-1.722959195912011E+000
-6.5791303E-001	-1.714445994683995E+000
-6.5683669E-001	-1.706358059964794E+000
-6.5585995E-001	-1.697695336729939E+000
-6.5482807E-001	-1.689470466088366E+000
-6.5386707E-001	-1.681121646254148E+000
-6.5290701E-001	-1.673298480786324E+000
-6.5186334E-001	-1.664942237789980E+000
-6.5085727E-001	-1.656934729328860E+000
-6.4986873E-001	-1.648642732173485E+000
-6.4889890E-001	-1.640382777485583E+000
-6.4791656E-001	-1.631951489106370E+000
-6.4682448E-001	-1.623864823291399E+000
-6.4583093E-001	-1.615648672812512E+000
-6.4486194E-001	-1.607710275661059E+000
-6.4381140E-001	-1.599095926135326E+000
-6.4285260E-001	-1.591397838736029E+000
-6.4182132E-001	-1.582907478566511E+000
-6.4084226E-001	-1.574852263635798E+000
-6.3983768E-001	-1.566233574654216E+000
-6.3886249E-001	-1.558209482442447E+000
-6.3788861E-001	-1.550106671877804E+000
-6.3687587E-001	-1.542002244817979E+000
-6.3581169E-001	-1.533604508748756E+000
-6.3477969E-001	-1.525836690236817E+000
-6.3389015E-001	-1.518087337690375E+000
-6.3286358E-001	-1.510299516496829E+000
-6.3187754E-001	-1.502090260450196E+000
-6.3082778E-001	-1.493788070010922E+000
-6.2992263E-001	-1.485774691044178E+000
-6.2889105E-001	-1.478091974441270E+000
-6.2786943E-001	-1.469476277767505E+000
-6.2686962E-001	-1.461869050093270E+000
-6.2593019E-001	-1.453615368576344E+000
-6.2480730E-001	-1.445624851932127E+000
-6.2390345E-001	-1.437895077002972E+000
-6.2289697E-001	-1.430174008425741E+000
-6.2191504E-001	-1.422792816465650E+000
-6.2089485E-001	-1.413995040546306E+000
-6.1988926E-001	-1.406267686436571E+000
-6.1897177E-001	-1.398077349695892E+000
-6.1789620E-001	-1.390278661937373E+000
-6.1690944E-001	-1.382277611229156E+000
-6.1588937E-001	-1.374818065790112E+000
-6.1484569E-001	-1.366839867341218E+000
-6.1387920E-001	-1.359507454766169E+000
-6.1288816E-001	-1.351267462527309E+000
-6.1183864E-001	-1.343183519363849E+000
-6.1084199E-001	-1.335290668877191E+000
-6.0988694E-001	-1.328025087576226E+000
-6.0892648E-001	-1.319762103319199E+000
-6.0790044E-001	-1.312245704095675E+000
-6.0683829E-001	-1.304740204993224E+000
-6.0587585E-001	-1.296998732745509E+000
-6.0497624E-001	-1.288454689361433E+000
-6.0391140E-001	-1.281205972587621E+000
-6.0284120E-001	-1.273800756374786E+000
-6.0188556E-001	-1.265870729392322E+000
-6.0089552E-001	-1.257414907630945E+000
-5.9989411E-001	-1.250205009070658E+000
-5.9893209E-001	-1.241984858970951E+000
-5.9778726E-001	-1.234793089882091E+000
-5.9682184E-001	-1.227163874301642E+000
-5.9588468E-001	-1.219107521076998E+000
-5.9484822E-001	-1.212059620215936E+000
-5.9387410E-001	-1.204404684027205E+000
-5.9288263E-001	-1.196563243452046E+000
-5.9188986E-001	-1.188815368270434E+000
-5.9084481E-001	-1.181103741763170E+000
-5.8983606E-001	-1.173649781969961E+000
-5.8893579E-001	-1.165787127006936E+000
-5.8784914E-001	-1.158216115570770E+000
-5.8691931E-001	-1.151347030230138E+000
-5.8585572E-001	-1.143290051293594E+000
-5.8486259E-001	-1.135336971420085E+000
-5.8394676E-001	-1.127838263357124E+000
-5.8293831E-001	-1.120555625055673E+000
-5.8189666E-001	-1.113092978673677E+000
-5.8089983E-001	-1.105438601501558E+000
-5.7986546E-001	-1.098012815609018E+000
-5.7892162E-001	-1.090268151785487E+000
-5.7793146E-001	-1.082918252795935E+000
-5.7688826E-001	-1.074925098292251E+000
-5.7589144E-001	-1.067971815544838E+000
-5.7490379E-001	-1.060238270847888E+000
-5.7383829E-001	-1.052654861714002E+000
-5.7285905E-001	-1.045169459131079E+000
-5.7189244E-001	-1.037982831398650E+000
-5.7089436E-001	-1.031106087344661E+000
-5.6989753E-001	-1.023088358367655E+000
-5.6893688E-001	-1.015419215791752E+000
-5.6791717E-001	-1.007886269164311E+000
-5.6685859E-001	-1.000934852905294E+000
-5.6596071E-001	-9.935158275895688E-001
-5.6485021E-001	-9.859630744214414E-001
-5.6390601E-001	-9.784570330043045E-001
-5.6292427E-001	-9.711432312097799E-001
-5.6184685E-001	-9.640468597654550E-001
-5.6087428E-001	-9.563493752093220E-001
-5.5988872E-001	-9.493440373076321E-001
-5.5892020E-001	-9.421557142591297E-001
-5.5791962E-001	-9.341806213336903E-001
-5.5688649E-001	-9.274564470957829E-001
-5.5587983E-001	-9.200481774329858E-001
-5.5485082E-001	-9.125737706544257E-001
-5.5395979E-001	-9.056934250725632E-001
-5.5290228E-001	-8.978594209969835E-001
-5.5184340E-001	-8.904774707776530E-001
-5.5086082E-001	-8.835378584486477E-001
-5.4992265E-001	-8.763857821279100E-001
-5.4894388E-001	-8.684137772630738E-001
-5.4792815E-001	-8.619261116341317E-001
-5.4687947E-001	-8.545294981314553E-001
-5.4594970E-001	-8.477194002932933E-001
-5.4490155E-001	-8.401697872689478E-001
-5.4389721E-001	-8.330806847496426E-001
-5.4296076E-001	-8.259939888009313E-001
-5.4188979E-001	-8.183009319559318E-001
-5.4087961E-001	-8.116263497620473E-001
-5.3983921E-001	-8.044784811359875E-001
-5.3897214E-001	-7.970461824701887E-001
-5.3784150E-001	-7.898220398363596E-001
-5.3696203E-001	-7.829041710744278E-001
-5.3598326E-001	-7.756575103159307E-001
-5.3482431E-001	-7.682671241256855E-001
-5.3391659E-001	-7.614190319070104E-001
-5.3286141E-001	-7.542474879710748E-001
-5.3188992E-001	-7.476455839962526E-001
-5.3097904E-001	-7.400714474281802E-001
-5.2990264E-001	-7.332231483111782E-001
-5.2886778E-001	-7.256310789058187E-001
-5.2788174E-001	-7.191696978967492E-001
-5.2696276E-001	-7.119595938258687E-001
-5.2599210E-001	-7.051634514347640E-001
-5.2488947E-001	-6.973829118327970E-001
-5.2391005E-001	-6.910757371396916E-001
-5.2293253E-001	-6.835901880208928E-001
-5.2187264E-001	-6.765777340365764E-001
-5.2086878E-001	-6.694967258997533E-001
-5.1996768E-001	-6.625123622684632E-001
-5.1895791E-001	-6.555314851165903E-001
-5.1799572E-001	-6.484543714258402E-001
-5.1689106E-001	-6.414531495842162E-001
-5.1585066E-001	-6.346656604221561E-001
-5.1493734E-001	-6.272947343273305E-001
-5.1387614E-001	-6.207755749564754E-001
-5.1288259E-001	-6.133071195886093E-001
-5.1192826E-001	-6.070850451511371E-001
-5.1087570E-001	-5.994571480591133E-001
-5.0986236E-001	-5.926795494915158E-001
-5.0889629E-001	-5.854913163930213E-001
-5.0785708E-001	-5.787206304307889E-001
-5.0693983E-001	-5.716827682184960E-001
-5.0590086E-001	-5.651608802102235E-001
-5.0494403E-001	-5.579593953387665E-001
-5.0388837E-001	-5.511890756725180E-001
-5.0290430E-001	-5.444270290296389E-001
-5.0194442E-001	-5.373024805483961E-001
-5.0090861E-001	-5.301387498362189E-001
-4.9987277E-001	-5.237279936533277E-001
-4.9891886E-001	-5.164871905568909E-001
-4.9792314E-001	-5.103106958860577E-001
-4.9693674E-001	-5.038369288323075E-001
-4.9592683E-001	-4.961521715231720E-001
-4.9489525E-001	-4.897100786092103E-001
-4.9398211E-001	-4.824371385922226E-001
-4.9292350E-001	-4.759797248989344E-001
-4.9194393E-001	-4.686328245809781E-001
-4.9083105E-001	-4.621969107213197E-001
-4.8982522E-001	-4.552905378794252E-001
-4.8869357E-001	-4.487271027260079E-001
-4.8774323E-001	-4.413290181715199E-001
-4.8648480E-001	-4.344646545747910E-001
-4.8557475E-001	-4.272401480487105E-001
-4.8473454E-001	-4.207806047301057E-001
-4.8375747E-001	-4.133033637233368E-001
-4.8275709E-001	-4.067946229543953E-001
-4.8167035E-001	-4.001375255402042E-001
-4.8071671E-001	-3.936399979585854E-001
-4.7961506E-001	-3.871478429064151E-001
-4.7863978E-001	-3.803235226436783E-001
-4.7761536E-001	-3.732673061528704E-001
-4.7680333E-001	-3.671670655409489E-001
-4.7577974E-001	-3.600727630421592E-001
-4.7458318E-001	-3.536044755191732E-001
-4.7357073E-001	-3.464832649462761E-001
-4.7274670E-001	-3.401945293122708E-001
-4.7162339E-001	-3.330952736583566E-001
-4.7056359E-001	-3.260824288138080E-001
-4.6972150E-001	-3.205011694744284E-001
-4.6863046E-001	-3.138041438672827E-001
-4.6756685E-001	-3.067917816202951E-001
-4.6656778E-001	-2.995391530346549E-001
-4.6558690E-001	-2.933773203856420E-001
-4.6464080E-001	-2.868752388490581E-001
-4.6358332E-001	-2.802451467302927E-001
-4.6270895E-001	-2.737370335876381E-001
-4.6157745E-001	-2.668641590409813E-001
-4.6074885E-001	-2.603492987595031E-001
-4.5962784E-001	-2.539546393478904E-001
-4.5861292E-001	-2.470760707639990E-001
-4.5768765E-001	-2.405518552966952E-001
-4.5658338E-001	-2.337146231697660E-001
-4.5562878E-001	-2.276613168004489E-001
-4.5459419E-001	-2.210629223838394E-001
-4.5377052E-001	-2.143873960055682E-001
-4.5259827E-001	-2.081430164614209E-001
-4.5172691E-001	-2.011484020628060E-001
-4.5071143E-001	-1.948913276816402E-001
-4.4968101E-001	-1.887355741389201E-001
-4.4861820E-001	-1.812645459064723E-001
-4.4764408E-001	-1.748889157617537E-001
-4.4658193E-001	-1.687292752959783E-001
-4.4562379E-001	-1.622889961495446E-001
-4.4463950E-001	-1.555347595777778E-001
-4.4362116E-001	-1.491479597962171E-001
-4.4258779E-001	-1.433543862809466E-001
-4.4177687E-001	-1.364642270081853E-001
-4.4058135E-001	-1.296460442361635E-001
-4.3956029E-001	-1.229618814670377E-001
-4.3867424E-001	-1.165306408786109E-001
-4.3755332E-001	-1.101076877329044E-001
-4.3655616E-001	-1.035313510542937E-001
-4.3560544E-001	-9.723114859554227E-002
-4.3473697E-001	-9.085297276769788E-002
-4.3360209E-001	-8.472406254494924E-002
-4.3262863E-001	-7.810656016658002E-002
-4.3158203E-001	-7.176651696083136E-002
-4.3057483E-001	-6.524437769419622E-002
-4.2952862E-001	-5.862670375413633E-002
-4.2871398E-001	-5.253500284382318E-002
-4.2746419E-001	-4.498074194721303E-002
-4.2641565E-001	-3.804608422366000E-002
-4.2542693E-001	-3.202246201258069E-002
-4.2430517E-001	-2.522399301718301E-002
-4.2343649E-001	-1.938720966077027E-002
-4.2237005E-001	-1.196708678748193E-002
-4.2133436E-001	-6.369903667493616E-003
-4.2024013E-001	8.590356397959547E-005
-4.1930759E-001	7.084370790942915E-003
-4.1835096E-001	1.277731866597331E-002
-4.1723454E-001	1.939055918612417E-002
-4.1645610E-001	2.589156288309396E-002
-4.1527790E-001	3.215467480132017E-002
-4.1424611E-001	3.816303927278902E-002
-4.1326576E-001	4.438407534706756E-002
-4.1237596E-001	5.134536881706908E-002
-4.1131026E-001	5.735556238020456E-002
-4.1040599E-001	6.335280196838666E-002
-4.0938899E-001	6.984178733977428E-002
-4.0828910E-001	7.641865854599961E-002
-4.0731505E-001	8.231191555354567E-002
-4.0622833E-001	8.869461349591012E-002
-4.0520963E-001	9.515347336074019E-002
-4.0429205E-001	1.014914022010243E-001
-4.0323743E-001	1.080770541554994E-001
-4.0194640E-001	1.152108338610272E-001
-4.0102017E-001	1.219068224265891E-001
-4.0005565E-001	1.274775610719292E-001
-3.9905506E-001	1.336319920435896E-001
-3.9814457E-001	1.407926520850094E-001
-3.9698678E-001	1.461090035391630E-001
-3.9615017E-001	1.528828634581161E-001
-3.9493656E-001	1.590020933912861E-001
-3.9394972E-001	1.654532064373302E-001
-3.9303744E-001	1.712006937533812E-001
-3.9201853E-001	1.776153971096162E-001
-3.9097276E-001	1.836570065675511E-001
-3.9008632E-001	1.901997504800044E-001
-3.8900101E-001	1.959819154537934E-001
-3.8801399E-001	2.021846851609923E-001
-3.8698176E-001	2.085393401649995E-001
-3.8603187E-001	2.143533739295838E-001
-3.8505334E-001	2.208102700059049E-001
-3.8395587E-001	2.269686047857860E-001
-3.8293669E-001	2.331472682870084E-001
-3.8199696E-001	2.391317435367801E-001
-3.8101017E-001	2.453518741857943E-001
-3.8013449E-001	2.509552138616087E-001
-3.7908915E-001	2.574712948666682E-001
-3.7798530E-001	2.633897042235200E-001
-3.7691969E-001	2.695701033635824E-001
-3.7603155E-001	2.754309082886683E-001
-3.7497225E-001	2.817647851101626E-001
-3.7389162E-001	2.880106361375923E-001
-3.7306622E-001	2.938287922146707E-001
-3.7198126E-001	3.000474857443999E-001
-3.7103298E-001	3.064670954589497E-001
-3.6998615E-001	3.117683871338772E-001
-3.6895567E-001	3.186492705595949E-001
-3.6803582E-001	3.241236600335009E-001
-3.6690900E-001	3.303322238433699E-001
-3.6593267E-001	3.362827212630153E-001
-3.6511713E-001	3.420690589204979E-001
-3.6393094E-001	3.482055064566713E-001
-3.6300209E-001	3.546792124415337E-001
-3.6199439E-001	3.603482790015371E-001
-3.6104622E-001	3.664699067120214E-001
-3.6006758E-001	3.727097373279236E-001
-3.5916913E-001	3.786599700925541E-001
-3.5793453E-001	3.844997394071141E-001
-3.5695896E-001	3.904671181134276E-001
-3.5587478E-001	3.962456802665075E-001
-3.5499614E-001	4.026192640540778E-001
-3.5413492E-001	4.080328609578419E-001
-3.5293129E-001	4.144148069813305E-001
-3.5195065E-001	4.203075952161779E-001
-3.5100603E-001	4.261490349416373E-001
-3.4995303E-001	4.320959033513514E-001
-3.4899339E-001	4.380526455863389E-001
-3.4798789E-001	4.437464700528864E-001
-3.4706938E-001	4.497609574485679E-001
-3.4605446E-001	4.560616175686452E-001
-3.4490883E-001	4.622102590208792E-001
-3.4400836E-001	4.679857306182367E-001
-3.4301746E-001	4.737454080828969E-001
-3.4205574E-001	4.798135228317104E-001
-3.4106788E-001	4.857024573203605E-001
-3.4018782E-001	4.917855079402926E-001
-3.3899748E-001	4.970952111675775E-001
-3.3800644E-001	5.031302987977302E-001
-3.3694804E-001	5.092194715677039E-001
-3.3584803E-001	5.150964769914204E-001
-3.3508244E-001	5.205812937131631E-001
-3.3412188E-001	5.272175574501485E-001
-3.3296779E-001	5.325486732439870E-001
-3.3203205E-001	5.385380350743172E-001
-3.3112517E-001	5.443480701983088E-001
-3.3005121E-001	5.496837053172019E-001
-3.2911572E-001	5.558939524408841E-001
-3.2802144E-001	5.614231636427931E-001
-3.2708251E-001	5.676423929355745E-001
-3.2594630E-001	5.738213622459647E-001
-3.2504529E-001	5.788778157856100E-001
-3.2399964E-001	5.844789817929268E-001
-3.2304910E-001	5.902499700723984E-001
-3.2210943E-001	5.964875661566804E-001
-3.2100210E-001	6.018482039648099E-001
-3.1993189E-001	6.083785752179436E-001
-3.1909776E-001	6.136528179077150E-001
-3.1813136E-001	6.192234220604118E-001
-3.1698269E-001	6.249304956032153E-001
-3.1597021E-001	6.311376259408590E-001
-3.1500757E-001	6.367033805560185E-001
-3.1395522E-001	6.417580411803954E-001
-3.1300813E-001	6.481721978816768E-001
-3.1187105E-001	6.533154825231560E-001
-3.1087363E-001	6.586681017997091E-001
-3.1006256E-001	6.654056452283497E-001
-3.0891210E-001	6.712066463574220E-001
-3.0813658E-001	6.762118886604371E-001
-3.0700776E-001	6.821087152484893E-001
-3.0604288E-001	6.886546504856250E-001
-3.0497372E-001	6.933810897861328E-001
-3.0408078E-001	6.992993014639310E-001
-3.0295810E-001	7.052245066949605E-001
-3.0200928E-001	7.111977129760731E-001
-3.0090511E-001	7.165710692791460E-001
-2.9996097E-001	7.223329588908856E-001
-2.9911563E-001	7.280775292052153E-001
-2.9794002E-001	7.332145021813234E-001
-2.9712886E-001	7.392725727210436E-001
-2.9597682E-001	7.452985829915200E-001
-2.9503763E-001	7.502757557044788E-001
-2.9397961E-001	7.558536757197629E-001
-2.9291558E-001	7.614547891059402E-001
-2.9197180E-001	7.675769063711613E-001
-2.9099348E-001	7.731065244448416E-001
-2.9002386E-001	7.783205104232920E-001
-2.8899863E-001	7.838447092673889E-001
-2.8803772E-001	7.901016599326232E-001
-2.8702599E-001	7.954052486112904E-001
-2.8604141E-001	8.011488090786614E-001
-2.8500068E-001	8.066177072900320E-001
-2.8416014E-001	8.118519417968990E-001
-2.8286076E-001	8.174631801192405E-001
-2.8202561E-001	8.236518823714167E-001
-2.8082579E-001	8.289738447592327E-001
-2.7998388E-001	8.343011405732916E-001
-2.7893257E-001	8.400997817516327E-001
-2.7800059E-001	8.450576806602239E-001
-2.7703446E-001	8.498345388582464E-001
-2.7599931E-001	8.559790133602068E-001
-2.7510652E-001	8.626904883139233E-001
-2.7392146E-001	8.671271004886520E-001
-2.7302843E-001	8.729244248458681E-001
-2.7193415E-001	8.783167781985419E-001
-2.7097759E-001	8.837953601722397E-001
-2.6989213E-001	8.894645098458849E-001
-2.6895669E-001	8.948522622411375E-001
-2.6800948E-001	9.006781489760778E-001
-2.6699528E-001	9.057291297724968E-001
-2.6612413E-001	9.115531890765531E-001
-2.6493341E-001	9.168720024603410E-001
-2.6398540E-001	9.221206348803306E-001
-2.6300588E-001	9.278062859477423E-001
-2.6185903E-001	9.331221690884366E-001
-2.6091805E-001	9.388953774339655E-001
-2.5985798E-001	9.441008157224893E-001
-2.5892833E-001	9.495709243195982E-001
-2.5799134E-001	9.553445541748351E-001
-2.5710258E-001	9.604212864174073E-001
-2.5590846E-001	9.661459666159473E-001
-2.5494435E-001	9.713845115016992E-001
-2.5397229E-001	9.771008012094686E-001
-2.5307572E-001	9.825980643983256E-001
-2.5188631E-001	9.876201780581959E-001
-2.5104415E-001	9.932169788465197E-001
-2.4991457E-001	9.983396268001279E-001
-2.4896510E-001	1.003952502652447E+000
-2.4797754E-001	1.009292734679430E+000
-2.4707441E-001	1.014018213721336E+000
-2.4600658E-001	1.019310566976118E+000
-2.4488004E-001	1.024713311541223E+000
-2.4397396E-001	1.030234685650578E+000
-2.4306162E-001	1.035567619182444E+000
-2.4211673E-001	1.041227490431794E+000
-2.4101986E-001	1.046425674662546E+000
-2.4003221E-001	1.051482685600165E+000
-2.3902164E-001	1.056885018708582E+000
-2.3788950E-001	1.061971696300638E+000
-2.3695509E-001	1.067182781519715E+000
-2.3597088E-001	1.072606342902169E+000
-2.3508774E-001	1.078238105056458E+000
-2.3398340E-001	1.083379860277528E+000
-2.3301330E-001	1.088782998205380E+000
-2.3195863E-001	1.093364109457641E+000
-2.3094773E-001	1.100100124032156E+000
-2.2981338E-001	1.106792233884338E+000
-2.2873475E-001	1.112073764204980E+000
-2.2786753E-001	1.117165217099302E+000
-2.2684507E-001	1.122507302021532E+000
-2.2582965E-001	1.126633146018893E+000
-2.2483240E-001	1.132647864374333E+000
-2.2386429E-001	1.138209375104417E+000
-2.2275889E-001	1.143290124005738E+000
-2.2181724E-001	1.147905906566205E+000
-2.2080329E-001	1.153607228701869E+000
-2.1980013E-001	1.158460280133623E+000
-2.1874474E-001	1.163585519167352E+000
-2.1782035E-001	1.169429417699576E+000
-2.1672238E-001	1.173833344131712E+000
-2.1582167E-001	1.178666449363714E+000
-2.1475615E-001	1.184781810613696E+000
-2.1372630E-001	1.189425962666670E+000
-2.1278362E-001	1.195004562948832E+000
-2.1181606E-001	1.199806216966227E+000
-2.1074590E-001	1.205136166540561E+000
-2.0978823E-001	1.209815723874726E+000
-2.0882019E-001	1.215751059629301E+000
-2.0782681E-001	1.219753849561569E+000
-2.0679857E-001	1.225255476540215E+000
-2.0578192E-001	1.229869717525114E+000
-2.0472316E-001	1.235251874421483E+000
-2.0375763E-001	1.240192674484700E+000
-2.0281167E-001	1.245384955847712E+000
-2.0179580E-001	1.249822271642865E+000
-2.0070910E-001	1.255112028633759E+000
-1.9982113E-001	1.259880885067911E+000
-1.9878806E-001	1.266097695049318E+000
-1.9778436E-001	1.269803253716205E+000
-1.9676797E-001	1.275313703688205E+000
-1.9577946E-001	1.279710254459467E+000
-1.9481087E-001	1.285661573387868E+000
-1.9371079E-001	1.290795771336107E+000
-1.9283321E-001	1.295895685062359E+000
-1.9176883E-001	1.301060758662636E+000
-1.9083413E-001	1.306218596106326E+000
-1.8975268E-001	1.311484088362366E+000
-1.8881641E-001	1.316432436346947E+000
-1.8779540E-001	1.321159368863808E+000
-1.8682088E-001	1.325375448360487E+000
-1.8581027E-001	1.330506120782417E+000
-1.8482094E-001	1.335744641445300E+000
-1.8377283E-001	1.340756796576365E+000
-1.8273722E-001	1.346095187868473E+000
-1.8180153E-001	1.350549608331043E+000
-1.8081090E-001	1.355539578116600E+000
-1.7979544E-001	1.360525512362974E+000
-1.7880903E-001	1.365482700643716E+000
-1.7786375E-001	1.370388295313285E+000
-1.7674653E-001	1.375294644385573E+000
-1.7581721E-001	1.380365121419789E+000
-1.7479749E-001	1.385469941430582E+000
-1.7387135E-001	1.389951268279987E+000
-1.7282705E-001	1.394402855110390E+000
-1.7187014E-001	1.400022987906756E+000
-1.7081842E-001	1.404846196787225E+000
-1.6985133E-001	1.409739240176147E+000
-1.6886783E-001	1.414442364223962E+000
-1.6787684E-001	1.419455281148348E+000
-1.6681960E-001	1.424402918804571E+000
-1.6581041E-001	1.429187282825849E+000
-1.6481817E-001	1.433786850974512E+000
-1.6378066E-001	1.439067850648255E+000
-1.6283809E-001	1.443932732305598E+000
-1.6177797E-001	1.448139058908934E+000
-1.6073875E-001	1.453618951555761E+000
-1.5975872E-001	1.457977218481581E+000
-1.5885676E-001	1.463007374908074E+000
-1.5779571E-001	1.468070551063178E+000
-1.5684256E-001	1.473034823340232E+000
-1.5583691E-001	1.477502904556417E+000
-1.5479940E-001	1.481849867022703E+000
-1.5378079E-001	1.486825207466872E+000
-1.5284933E-001	1.491212702045834E+000
-1.5181457E-001	1.496491713380365E+000
-1.5088975E-001	1.501246026617473E+000
-1.4977537E-001	1.506279887424572E+000
-1.4884859E-001	1.511412909323411E+000
-1.4778142E-001	1.514728429030346E+000
-1.4681090E-001	1.519705951903710E+000
-1.4581263E-001	1.525138063011340E+000
-1.4483251E-001	1.529452681632350E+000
-1.4387187E-001	1.533829613968177E+000
-1.4277115E-001	1.538637272875625E+000
-1.4183281E-001	1.543770034691640E+000
-1.4081872E-001	1.548235393094794E+000
-1.3981070E-001	1.552935472517104E+000
-1.3881332E-001	1.557440831977580E+000
-1.3791427E-001	1.562658793396419E+000
-1.3680081E-001	1.567223132208539E+000
-1.3582642E-001	1.571782324107327E+000
-1.3483928E-001	1.576499127127509E+000
-1.3379604E-001	1.580993094378037E+000
-1.3283864E-001	1.585832014823957E+000
-1.3184127E-001	1.590155168815897E+000
-1.3091810E-001	1.595605423880951E+000
-1.2986043E-001	1.599954280297538E+000
-1.2884369E-001	1.603599830910007E+000
-1.2782083E-001	1.608386908416396E+000
-1.2682523E-001	1.613120340033539E+000
-1.2585631E-001	1.617639380196728E+000
-1.2479166E-001	1.621815012285005E+000
-1.2378188E-001	1.626868206711965E+000
-1.2282691E-001	1.631077695775918E+000
-1.2183480E-001	1.635617414006475E+000
-1.2080497E-001	1.640361147321173E+000
-1.1982744E-001	1.644325666129589E+000
-1.1871907E-001	1.649215850841124E+000
-1.1786611E-001	1.653902801314612E+000
-1.1681545E-001	1.658422677053338E+000
-1.1577582E-001	1.663080021187099E+000
-1.1481084E-001	1.668080192257236E+000
-1.1384396E-001	1.672341296518290E+000
-1.1283006E-001	1.676873520089774E+000
-1.1184508E-001	1.680473041203285E+000
-1.1084808E-001	1.685738598582919E+000
-1.0991257E-001	1.689993855683371E+000
-1.0885261E-001	1.695003996844650E+000
-1.0783269E-001	1.699197668444230E+000
-1.0691765E-001	1.703424366121226E+000
-1.0591677E-001	1.707896189833136E+000
-1.0480946E-001	1.712655028535263E+000
-1.0383536E-001	1.716004912158027E+000
-1.0288800E-001	1.720753156752497E+000
-1.0181295E-001	1.725431134855317E+000
-1.0079417E-001	1.729406421686718E+000
-9.9876642E-002	1.733990256709077E+000
-9.8859929E-002	1.738551771475208E+000
-9.7821631E-002	1.741663172554887E+000
-9.6861251E-002	1.746149690614807E+000
-9.5900096E-002	1.751559635279357E+000
-9.4801836E-002	1.754691522356474E+000
-9.3823381E-002	1.759950796211200E+000
-9.2816181E-002	1.763372342895590E+000
-9.1836363E-002	1.768602934005330E+000
-9.0879478E-002	1.772660307586186E+000
-8.9924470E-002	1.776687061345143E+000
-8.8858157E-002	1.781709084689090E+000
-8.7871298E-002	1.786136554623102E+000
-8.6788386E-002	1.790174309302259E+000
-8.5834473E-002	1.794352605561343E+000
-8.4901713E-002	1.798690184398934E+000
-8.3917238E-002	1.803453636666141E+000
-8.2886830E-002	1.806767516928765E+000
-8.1880800E-002	1.811659511040759E+000
-8.0843717E-002	1.815484100193885E+000
-7.9896294E-002	1.820168876708021E+000
-7.8923762E-002	1.823702900773949E+000
-7.7884957E-002	1.827714006933903E+000
-7.6829508E-002	1.832692577707945E+000
-7.5823732E-002	1.836597444834540E+000
-7.4900761E-002	1.840487659529401E+000
-7.3874712E-002	1.844728710477312E+000
-7.2835907E-002	1.849374471439241E+000
-7.1912944E-002	1.854118598556080E+000
-7.0816942E-002	1.857637467117172E+000
-6.9828793E-002	1.861605886231966E+000
-6.8882920E-002	1.865923752111411E+000
-6.7905977E-002	1.870511586567716E+000
-6.6858158E-002	1.874271191380636E+000
-6.5822132E-002	1.878152582656455E+000
-6.4839691E-002	1.882724701236612E+000
-6.3831955E-002	1.886868126966336E+000
-6.2921926E-002	1.891113469998047E+000
-6.1840788E-002	1.895531913664378E+000
-6.0881898E-002	1.899646472599770E+000
-5.9899956E-002	1.902670194981276E+000
-5.8815822E-002	1.906963776921028E+000
-5.7945628E-002	1.911309323101136E+000
-5.6772351E-002	1.914524918629064E+000
-5.5832654E-002	1.919303634582109E+000
-5.4902449E-002	1.923696296634498E+000
-5.3843509E-002	1.926715495685744E+000
-5.2830406E-002	1.930796068026936E+000
-5.1947936E-002	1.936052759212473E+000
-5.0859511E-002	1.939526914998338E+000
-4.9889665E-002	1.943497715868808E+000
-4.8815027E-002	1.947532130060370E+000
-4.7790237E-002	1.951029072481183E+000
-4.6887849E-002	1.955090960814658E+000
-4.5838241E-002	1.958604039141427E+000
-4.4847183E-002	1.963059084340056E+000
-4.3922096E-002	1.967268420314340E+000
-4.2851698E-002	1.971183027658196E+000
-4.1877717E-002	1.975000411276863E+000
-4.0884852E-002	1.979540489889960E+000
-3.9843734E-002	1.982638915931741E+000
-3.8877182E-002	1.986888783514967E+000
-3.7919100E-002	1.991034307689581E+000
-3.6848918E-002	1.994786139163705E+000
-3.5813093E-002	1.998218404026153E+000
-3.4774736E-002	2.002671293638382E+000
-3.3853680E-002	2.006253968786320E+000
-3.2848459E-002	2.010307091045405E+000
-3.1899352E-002	2.013730470229078E+000
-3.0838288E-002	2.018513409351858E+000
-2.9924944E-002	2.021277845770168E+000
-2.8829655E-002	2.024972738491165E+000
-2.7884413E-002	2.029086188033773E+000
-2.6854454E-002	2.032820724510479E+000
-2.5842898E-002	2.037650157456056E+000
-2.4845477E-002	2.040738529629174E+000
-2.3791848E-002	2.045584925821316E+000
-2.2858268E-002	2.049114961039139E+000
-2.1841964E-002	2.052837092015476E+000
-2.0858299E-002	2.056662567639237E+000
-1.9850934E-002	2.060787158707768E+000
-1.8854786E-002	2.064541283580983E+000
-1.7856458E-002	2.067167563529658E+000
-1.6817514E-002	2.071463776131473E+000
-1.5891153E-002	2.075450934745657E+000
-1.4785514E-002	2.079898538988704E+000
-1.3903519E-002	2.083169695955738E+000
-1.2810639E-002	2.086628517618891E+000
-1.1938635E-002	2.089733793478775E+000
-1.0884522E-002	2.093828386730625E+000
-9.9002505E-003	2.097229949302140E+000
-8.8586500E-003	2.101534210113009E+000
-7.8653116E-003	2.105430836754830E+000
-6.7966133E-003	2.107915630771062E+000
-5.8477507E-003	2.110880349075149E+000
-4.8774970E-003	2.115833556486507E+000
-3.8843164E-003	2.119908310472967E+000
-2.8580572E-003	2.123358017995765E+000
-1.8671970E-003	2.125931250552344E+000
-8.5662183E-004	2.129955296715091E+000
1.0851019E-004	2.133104630688806E+000
1.1369511E-003	2.137600262959801E+000
2.1697991E-003	2.140898071229458E+000
3.1596359E-003	2.145192862993695E+000
4.1930699E-003	2.148631844807557E+000
5.1353388E-003	2.151655184174027E+000
6.0432157E-003	2.155350858471103E+000
6.6401726E-003	2.157587687174477E+000
6.7547215E-003	2.158523947000504E+000