EC-Lab ASCII FILE
Nb header lines : 63                          

Linear Sweep Voltammetry

Run on channel : 6 (SN 13765)
User : 
Electrode connection : standard
Potential control : Ewe
Ewe ctrl range : min = -2.50 V, max = 2.50 V
Ewe,I filtering : <None>
Safety Limits :
	Do not start on E overload
Channel : Floating
Acquisition started on : 07/13/2026 15:48:58.600
Technique started on : 07/13/2026 15:48:59.597
Loaded Setting File :  C:\Users\EEM-620\Desktop\Wade\20260630\LSV 1mg MoS2 1_C06.mpr
Saved on :
	File : N719_0713-c-2_C06.mpr
	Directory : C:\Users\EEM-620\Desktop\Wade\abao\20260713\
	Host : 192.109.209.200
Device : VSP-300 (SN 0025)
Address : 192.109.209.129
EC-LAB for windows v11.62 (software)
Internet server v27.00 (firmware)
Command interpretor v12.02 (firmware)
Electrode material : Au/Pd
Initial state : 
Electrolyte : NaCl (0.2M)
Comments : Fe(CN)63-/Fe(CN)64- 5.10-3 M
Cable : ULC
Reference electrode : SCE Saturated Calomel Electrode (0.241 V)
Electrode surface area : 0.001 cm2
Characteristic mass : 0.001 g
Equivalent Weight : 0.000 g/eq.
Density : 0.000 g/cm3
Volume (V) : 0.001 cm3
Cycle Definition : Charge/Discharge alternance
tR (h:m:s)          0:00:5.0000         
dER/dt (mV/h)       0.0                 
dER (mV)            0                   
dtR (s)             0.0500              
dE/dt               10.000              
dE/dt unit          mV/s                
Ei (V)              -0.800              
vs.                 Ref                 
EL (V)              0.010               
vs.                 Ref                 
record              <I>                 
dI                  0.000               
unit dI             uA                  
tI (s)              0.0000              
step percent        50                  
N                   10                  
E range min (V)     -2.500              
E range max (V)     2.500               
I Range             Auto                
I Range min         Unset               
I Range max         Unset               
I Range init        Unset               
Bandwidth           8                   

Ewe/V	<I>/mA	
-2.6311460E-001	0.000000000000000E+000
-2.6346207E-001	0.000000000000000E+000
-2.6345441E-001	0.000000000000000E+000
-2.6317185E-001	0.000000000000000E+000
-2.6342386E-001	0.000000000000000E+000
-2.6339331E-001	0.000000000000000E+000
-2.6363769E-001	0.000000000000000E+000
-2.6387823E-001	0.000000000000000E+000
-2.6323295E-001	0.000000000000000E+000
-2.6375988E-001	0.000000000000000E+000
-2.6332840E-001	0.000000000000000E+000
-2.6358041E-001	0.000000000000000E+000
-2.6371405E-001	0.000000000000000E+000
-2.6304966E-001	0.000000000000000E+000
-2.6317567E-001	0.000000000000000E+000
-2.6392788E-001	0.000000000000000E+000
-2.6356131E-001	0.000000000000000E+000
-2.6356131E-001	0.000000000000000E+000
-2.6395079E-001	0.000000000000000E+000
-2.6359951E-001	0.000000000000000E+000
-2.6377895E-001	0.000000000000000E+000
-2.6353079E-001	0.000000000000000E+000
-2.6367205E-001	0.000000000000000E+000
-2.6397371E-001	0.000000000000000E+000
-2.6406533E-001	0.000000000000000E+000
-2.6359189E-001	0.000000000000000E+000
-2.6373315E-001	0.000000000000000E+000
-2.6342386E-001	0.000000000000000E+000
-2.6393935E-001	0.000000000000000E+000
-2.6364151E-001	0.000000000000000E+000
-2.6367971E-001	0.000000000000000E+000
-2.6383623E-001	0.000000000000000E+000
-2.6401952E-001	0.000000000000000E+000
-2.6390496E-001	0.000000000000000E+000
-2.6381332E-001	0.000000000000000E+000
-2.6377133E-001	0.000000000000000E+000
-2.6388204E-001	0.000000000000000E+000
-2.6365298E-001	0.000000000000000E+000
-2.6394698E-001	0.000000000000000E+000
-2.6346588E-001	0.000000000000000E+000
-2.6332459E-001	0.000000000000000E+000
-2.6398516E-001	0.000000000000000E+000
-2.6342389E-001	0.000000000000000E+000
-2.6384386E-001	0.000000000000000E+000
-2.6371789E-001	0.000000000000000E+000
-2.6361477E-001	0.000000000000000E+000
-2.6332459E-001	0.000000000000000E+000
-2.6384771E-001	0.000000000000000E+000
-2.6418751E-001	0.000000000000000E+000
-2.6387060E-001	0.000000000000000E+000
-2.6434788E-001	0.000000000000000E+000
-2.6397753E-001	0.000000000000000E+000
-2.6368353E-001	0.000000000000000E+000
-2.6354223E-001	0.000000000000000E+000
-2.6373696E-001	0.000000000000000E+000
-2.6363769E-001	0.000000000000000E+000
-2.6375225E-001	0.000000000000000E+000
-2.6350787E-001	0.000000000000000E+000
-2.6425242E-001	0.000000000000000E+000
-2.6444334E-001	0.000000000000000E+000
-2.6352313E-001	0.000000000000000E+000
-2.6909405E-001	0.000000000000000E+000
-2.6895276E-001	0.000000000000000E+000
-7.8941280E-001	-3.600208303202754E+000
-7.8870183E-001	-3.581863331697967E+000
-7.8778994E-001	-3.557549545058507E+000
-7.8678674E-001	-3.538947497804969E+000
-7.8586167E-001	-3.523578822814770E+000
-7.8472590E-001	-3.510505956080220E+000
-7.8383023E-001	-3.498874531851868E+000
-7.8272808E-001	-3.488409525751753E+000
-7.8174412E-001	-3.478387849198453E+000
-7.8079540E-001	-3.469244012678113E+000
-7.7974945E-001	-3.460349987389186E+000
-7.7890164E-001	-3.451962108413383E+000
-7.7777481E-001	-3.443316059531981E+000
-7.7689695E-001	-3.435201531924534E+000
-7.7580392E-001	-3.426879218331095E+000
-7.7490216E-001	-3.418639066042708E+000
-7.7375859E-001	-3.410609748914894E+000
-7.7281612E-001	-3.402302994772238E+000
-7.7170187E-001	-3.394490494220343E+000
-7.7084261E-001	-3.386456230028056E+000
-7.6975358E-001	-3.378506328220709E+000
-7.6883668E-001	-3.370642533456817E+000
-7.6782727E-001	-3.362801166232238E+000
-7.6678807E-001	-3.354854679218050E+000
-7.6583880E-001	-3.346951510067331E+000
-7.6481092E-001	-3.339172979360399E+000
-7.6385140E-001	-3.331305429339402E+000
-7.6291335E-001	-3.323799673605855E+000
-7.6195580E-001	-3.316138664401485E+000
-7.6082444E-001	-3.308503418057027E+000
-7.5989133E-001	-3.300762838235602E+000
-7.5880086E-001	-3.292921180718380E+000
-7.5783759E-001	-3.285263605691775E+000
-7.5684315E-001	-3.277568391075835E+000
-7.5595194E-001	-3.270132462495560E+000
-7.5487947E-001	-3.262850433588014E+000
-7.5391328E-001	-3.254949378244284E+000
-7.5284106E-001	-3.247116494509918E+000
-7.5187361E-001	-3.239580510391121E+000
-7.5093943E-001	-3.231986614354142E+000
-7.4986267E-001	-3.224346293895323E+000
-7.4890000E-001	-3.216763965509544E+000
-7.4789149E-001	-3.209388871903968E+000
-7.4680096E-001	-3.202173611632091E+000
-7.4580228E-001	-3.194191850997790E+000
-7.4486679E-001	-3.186406639797525E+000
-7.4387324E-001	-3.178941167615058E+000
-7.4281043E-001	-3.171474874571519E+000
-7.4191600E-001	-3.164170803788565E+000
-7.4084443E-001	-3.156587287231723E+000
-7.3978537E-001	-3.148706311980888E+000
-7.3885190E-001	-3.141268846263337E+000
-7.3784900E-001	-3.133814925396891E+000
-7.3689806E-001	-3.126307049559220E+000
-7.3585182E-001	-3.118675189354573E+000
-7.3477739E-001	-3.111016856023554E+000
-7.3381841E-001	-3.103526919252346E+000
-7.3291939E-001	-3.095988816313195E+000
-7.3170602E-001	-3.088452938530182E+000
-7.3077136E-001	-3.081115140683110E+000
-7.2979885E-001	-3.073740138602702E+000
-7.2890633E-001	-3.066177213081602E+000
-7.2780305E-001	-3.058933107113390E+000
-7.2694868E-001	-3.051363908452078E+000
-7.2580254E-001	-3.043635638223758E+000
-7.2485495E-001	-3.036435192105948E+000
-7.2374314E-001	-3.028996075420103E+000
-7.2286600E-001	-3.021546959325121E+000
-7.2187525E-001	-3.014096475861683E+000
-7.2082561E-001	-3.006568761521450E+000
-7.1980399E-001	-2.999275918360104E+000
-7.1881521E-001	-2.991895279398683E+000
-7.1778327E-001	-2.984404935141427E+000
-7.1682930E-001	-2.977114012671848E+000
-7.1591991E-001	-2.969849202919875E+000
-7.1488202E-001	-2.962140894389520E+000
-7.1390468E-001	-2.954840809382773E+000
-7.1285528E-001	-2.947498501174962E+000
-7.1186048E-001	-2.939958160807635E+000
-7.1097600E-001	-2.932826835248207E+000
-7.0981830E-001	-2.925559440972613E+000
-7.0892745E-001	-2.917990560693184E+000
-7.0790970E-001	-2.910493853467472E+000
-7.0685107E-001	-2.903272941984518E+000
-7.0581198E-001	-2.895766077782319E+000
-7.0485854E-001	-2.888261460595650E+000
-7.0383263E-001	-2.881351698603893E+000
-7.0282143E-001	-2.873841680482208E+000
-7.0181108E-001	-2.866561360105315E+000
-7.0085633E-001	-2.859216802650025E+000
-6.9984049E-001	-2.852060622053621E+000
-6.9892174E-001	-2.844554412144205E+000
-6.9788164E-001	-2.837499728357351E+000
-6.9676763E-001	-2.830149020321798E+000
-6.9585037E-001	-2.822363479269868E+000
-6.9490361E-001	-2.815500645725805E+000
-6.9389749E-001	-2.808085015946439E+000
-6.9292253E-001	-2.800915953737701E+000
-6.9189882E-001	-2.793669633291380E+000
-6.9094062E-001	-2.786251128547732E+000
-6.8981779E-001	-2.779092332831132E+000
-6.8892801E-001	-2.771830732030693E+000
-6.8791276E-001	-2.764405564853440E+000
-6.8685806E-001	-2.757149031592736E+000
-6.8592077E-001	-2.750076527559415E+000
-6.8502951E-001	-2.742757481005455E+000
-6.8388230E-001	-2.735550486103257E+000
-6.8284452E-001	-2.728328673189520E+000
-6.8198502E-001	-2.721350273876290E+000
-6.8095493E-001	-2.713805516284928E+000
-6.7997324E-001	-2.706880824092737E+000
-6.7893523E-001	-2.699525869554950E+000
-6.7785019E-001	-2.691945275222807E+000
-6.7683512E-001	-2.685205703399772E+000
-6.7589271E-001	-2.677554307160548E+000
-6.7487389E-001	-2.670484119819271E+000
-6.7390388E-001	-2.663252070928049E+000
-6.7279160E-001	-2.655862323387900E+000
-6.7183709E-001	-2.648930579699854E+000
-6.7086989E-001	-2.641570168238090E+000
-6.6992599E-001	-2.634561292275244E+000
-6.6894048E-001	-2.627233693721120E+000
-6.6785192E-001	-2.620058779711724E+000
-6.6684121E-001	-2.612825432309400E+000
-6.6585702E-001	-2.605642030084571E+000
-6.6491365E-001	-2.598566697919260E+000
-6.6391784E-001	-2.591405343402311E+000
-6.6294956E-001	-2.584012435542213E+000
-6.6184127E-001	-2.577051670507792E+000
-6.6085398E-001	-2.569935090839866E+000
-6.5985906E-001	-2.562518156788965E+000
-6.5890771E-001	-2.555734791997914E+000
-6.5789372E-001	-2.548580640444050E+000
-6.5677685E-001	-2.541751576242625E+000
-6.5582561E-001	-2.534539225829207E+000
-6.5484160E-001	-2.527371455121919E+000
-6.5390211E-001	-2.520145132309853E+000
-6.5294403E-001	-2.512963977115177E+000
-6.5191108E-001	-2.505936642763791E+000
-6.5086001E-001	-2.498611003160487E+000
-6.4992428E-001	-2.491774595215510E+000
-6.4879918E-001	-2.484534659043504E+000
-6.4785373E-001	-2.477517818411183E+000
-6.4685637E-001	-2.470331155535906E+000
-6.4592892E-001	-2.463120748875316E+000
-6.4477748E-001	-2.455907887330760E+000
-6.4388311E-001	-2.449095910578638E+000
-6.4288443E-001	-2.441984125585460E+000
-6.4185733E-001	-2.434782523523872E+000
-6.4085001E-001	-2.427783331358008E+000
-6.3986617E-001	-2.420746033942251E+000
-6.3894016E-001	-2.413487860725983E+000
-6.3778049E-001	-2.406560864472805E+000
-6.3679785E-001	-2.399499342673359E+000
-6.3589692E-001	-2.392285366301181E+000
-6.3482338E-001	-2.385035986515506E+000
-6.3392037E-001	-2.378274977483137E+000
-6.3294822E-001	-2.371168770999816E+000
-6.3193870E-001	-2.364068538577712E+000
-6.3094848E-001	-2.357082580526679E+000
-6.2994874E-001	-2.350042548720484E+000
-6.2889063E-001	-2.343065472184747E+000
-6.2788808E-001	-2.336113270786079E+000
-6.2703961E-001	-2.328941791973726E+000
-6.2587899E-001	-2.322079105713613E+000
-6.2488443E-001	-2.315253311561214E+000
-6.2386310E-001	-2.307912896519817E+000
-6.2284642E-001	-2.300973614884736E+000
-6.2192678E-001	-2.293909584482510E+000
-6.2089217E-001	-2.287043554463368E+000
-6.1980307E-001	-2.280287726057887E+000
-6.1900276E-001	-2.272963455153835E+000
-6.1793882E-001	-2.265890279101271E+000
-6.1696482E-001	-2.258804541771061E+000
-6.1590183E-001	-2.252142610925205E+000
-6.1485946E-001	-2.245024450801244E+000
-6.1389744E-001	-2.238171556205662E+000
-6.1294204E-001	-2.230998259175704E+000
-6.1180967E-001	-2.224164405549004E+000
-6.1086130E-001	-2.216818027474254E+000
-6.0997587E-001	-2.210015501689021E+000
-6.0888678E-001	-2.203062577067605E+000
-6.0794663E-001	-2.196132193836902E+000
-6.0696369E-001	-2.189498983599528E+000
-6.0603249E-001	-2.182377319978370E+000
-6.0482281E-001	-2.175310060933789E+000
-6.0390139E-001	-2.168458229137794E+000
-6.0299468E-001	-2.161505028153353E+000
-6.0190636E-001	-2.154571775209018E+000
-6.0092610E-001	-2.147743511255143E+000
-5.9990674E-001	-2.140742848635718E+000
-5.9903479E-001	-2.134105221540830E+000
-5.9794635E-001	-2.127204945793864E+000
-5.9700620E-001	-2.120187602496891E+000
-5.9600472E-001	-2.113247439265262E+000
-5.9492069E-001	-2.106236712248238E+000
-5.9388316E-001	-2.099268872996326E+000
-5.9300506E-001	-2.092451773307928E+000
-5.9194589E-001	-2.085794757361768E+000
-5.9086728E-001	-2.078812373987532E+000
-5.8993745E-001	-2.072152325124652E+000
-5.8891076E-001	-2.065299317240715E+000
-5.8787555E-001	-2.058352722215117E+000
-5.8696198E-001	-2.051511569707490E+000
-5.8586949E-001	-2.044612211485717E+000
-5.8496618E-001	-2.037812551050692E+000
-5.8396333E-001	-2.030842135073975E+000
-5.8296061E-001	-2.024148146587386E+000
-5.8193469E-001	-2.017480769749319E+000
-5.8093351E-001	-2.010477049483193E+000
-5.7996386E-001	-2.003545465016803E+000
-5.7899886E-001	-1.996881645559665E+000
-5.7796884E-001	-1.990164679233672E+000
-5.7697093E-001	-1.982981769023109E+000
-5.7594180E-001	-1.976201523018768E+000
-5.7489443E-001	-1.969376194256325E+000
-5.7384950E-001	-1.962638291771768E+000
-5.7297164E-001	-1.955935545960209E+000
-5.7195032E-001	-1.949258875791660E+000
-5.7091171E-001	-1.942249839228609E+000
-5.6993121E-001	-1.935491406229730E+000
-5.6885332E-001	-1.928487977771844E+000
-5.6790674E-001	-1.921685285038418E+000
-5.6693983E-001	-1.915112322895290E+000
-5.6590855E-001	-1.908183552600718E+000
-5.6494844E-001	-1.901627816259861E+000
-5.6396466E-001	-1.894522254737680E+000
-5.6299627E-001	-1.887853685076593E+000
-5.6195736E-001	-1.880989905558473E+000
-5.6095982E-001	-1.874085387973885E+000
-5.5990463E-001	-1.867494522421453E+000
-5.5899644E-001	-1.860731020709046E+000
-5.5777580E-001	-1.853905560793693E+000
-5.5688059E-001	-1.846857368394190E+000
-5.5592352E-001	-1.840430460119688E+000
-5.5493087E-001	-1.833618360537081E+000
-5.5388790E-001	-1.826986265679192E+000
-5.5292374E-001	-1.820191794378907E+000
-5.5189347E-001	-1.813497859846663E+000
-5.5079317E-001	-1.806464896433882E+000
-5.5004662E-001	-1.799934464395967E+000
-5.4893559E-001	-1.793100358711347E+000
-5.4807752E-001	-1.786612200240292E+000
-5.4698020E-001	-1.779895385254306E+000
-5.4592788E-001	-1.773151493182887E+000
-5.4501081E-001	-1.766362311387504E+000
-5.4393244E-001	-1.759666995441279E+000
-5.4298586E-001	-1.753145431754767E+000
-5.4201722E-001	-1.746088612686701E+000
-5.4088056E-001	-1.739541399869130E+000
-5.3998309E-001	-1.733039579457703E+000
-5.3903788E-001	-1.726304939499606E+000
-5.3795588E-001	-1.719730612581117E+000
-5.3704369E-001	-1.713302065928787E+000
-5.3597778E-001	-1.706454603484378E+000
-5.3491634E-001	-1.699690506148414E+000
-5.3391862E-001	-1.693098514168344E+000
-5.3299838E-001	-1.686173196744036E+000
-5.3196687E-001	-1.679708180759405E+000
-5.3106517E-001	-1.673042496597322E+000
-5.3000933E-001	-1.666356428077920E+000
-5.2890873E-001	-1.659865548291002E+000
-5.2799201E-001	-1.653393341159386E+000
-5.2698267E-001	-1.646618058836012E+000
-5.2596891E-001	-1.639878931359874E+000
-5.2483660E-001	-1.633115347060894E+000
-5.2395964E-001	-1.626250609479573E+000
-5.2296031E-001	-1.619924552853377E+000
-5.2206373E-001	-1.613249586964095E+000
-5.2095723E-001	-1.606567924497313E+000
-5.1998776E-001	-1.600079368208927E+000
-5.1895154E-001	-1.593193088416712E+000
-5.1792336E-001	-1.586937500094926E+000
-5.1689577E-001	-1.580125788226168E+000
-5.1593018E-001	-1.573405210894563E+000
-5.1501638E-001	-1.566683716520110E+000
-5.1400030E-001	-1.560289672203282E+000
-5.1293522E-001	-1.553646313233505E+000
-5.1185721E-001	-1.547060025510971E+000
-5.1094055E-001	-1.540503375517916E+000
-5.0997078E-001	-1.533963923928906E+000
-5.0893724E-001	-1.527227719624847E+000
-5.0799501E-001	-1.520734386744593E+000
-5.0693876E-001	-1.514176204662640E+000
-5.0589240E-001	-1.507507491856821E+000
-5.0507605E-001	-1.500998927802947E+000
-5.0390369E-001	-1.494363838047896E+000
-5.0295502E-001	-1.487892468080489E+000
-5.0194514E-001	-1.481359642502952E+000
-5.0095278E-001	-1.474571164559435E+000
-4.9982804E-001	-1.467860884274607E+000
-4.9892625E-001	-1.461515440889026E+000
-4.9792990E-001	-1.454949970460599E+000
-4.9699023E-001	-1.448476910729099E+000
-4.9597749E-001	-1.442021309375619E+000
-4.9498516E-001	-1.435154241820179E+000
-4.9394763E-001	-1.428672148934741E+000
-4.9296743E-001	-1.422319327377611E+000
-4.9194053E-001	-1.415803127404715E+000
-4.9094391E-001	-1.409232247153669E+000
-4.8992848E-001	-1.402759728884256E+000
-4.8891851E-001	-1.396047590507403E+000
-4.8802698E-001	-1.389524342191550E+000
-4.8702362E-001	-1.383119719447908E+000
-4.8593095E-001	-1.376608816561877E+000
-4.8494822E-001	-1.370145811948146E+000
-4.8398831E-001	-1.363896719973399E+000
-4.8291513E-001	-1.357164952076142E+000
-4.8193622E-001	-1.350700628954527E+000
-4.8097542E-001	-1.343966088499180E+000
-4.8000005E-001	-1.337898388504980E+000
-4.7903946E-001	-1.331276173913344E+000
-4.7803810E-001	-1.324934091694921E+000
-4.7698790E-001	-1.318111794966239E+000
-4.7598982E-001	-1.312078340098875E+000
-4.7495294E-001	-1.305532725734842E+000
-4.7382185E-001	-1.298752408750628E+000
-4.7289643E-001	-1.292498807671512E+000
-4.7188306E-001	-1.286034610950281E+000
-4.7092035E-001	-1.279761528527295E+000
-4.6989423E-001	-1.273133015101191E+000
-4.6888590E-001	-1.266704950067737E+000
-4.6784642E-001	-1.260426727985902E+000
-4.6701905E-001	-1.254097829996871E+000
-4.6587831E-001	-1.247607150287543E+000
-4.6493945E-001	-1.241070349183349E+000
-4.6395594E-001	-1.234790816038075E+000
-4.6303305E-001	-1.228068670740836E+000
-4.6196419E-001	-1.221702120784258E+000
-4.6103507E-001	-1.215392367626391E+000
-4.6012649E-001	-1.209107508399971E+000
-4.5895994E-001	-1.202561889119725E+000
-4.5795351E-001	-1.196146025188815E+000
-4.5697489E-001	-1.189925161638744E+000
-4.5589668E-001	-1.183551807508426E+000
-4.5491332E-001	-1.177178483933627E+000
-4.5392877E-001	-1.170815198509775E+000
-4.5294175E-001	-1.164426417952333E+000
-4.5189583E-001	-1.157910744013442E+000
-4.5096192E-001	-1.151730745064992E+000
-4.4987482E-001	-1.145357048483916E+000
-4.4905365E-001	-1.138968211368761E+000
-4.4795886E-001	-1.132636063214803E+000
-4.4695213E-001	-1.126347292076659E+000
-4.4593823E-001	-1.120073647109024E+000
-4.4494537E-001	-1.113762459683194E+000
-4.4391507E-001	-1.107597615431859E+000
-4.4301775E-001	-1.100737070122038E+000
-4.4195822E-001	-1.094447585167705E+000
-4.4099534E-001	-1.088136354668276E+000
-4.3992436E-001	-1.081916888048909E+000
-4.3901727E-001	-1.075829959026088E+000
-4.3787095E-001	-1.069170238657130E+000
-4.3690285E-001	-1.062942136908640E+000
-4.3589389E-001	-1.056558642536402E+000
-4.3493190E-001	-1.050202286353816E+000
-4.3394214E-001	-1.043922698998081E+000
-4.3296954E-001	-1.037639243735203E+000
-4.3197572E-001	-1.031409409587026E+000
-4.3102026E-001	-1.025088395635432E+000
-4.2989817E-001	-1.018806128176275E+000
-4.2898038E-001	-1.012505736135022E+000
-4.2801893E-001	-1.006326783034537E+000
-4.2699558E-001	-9.999475817161638E-001
-4.2596182E-001	-9.938770641904133E-001
-4.2498082E-001	-9.875527625834495E-001
-4.2395306E-001	-9.808369957738430E-001
-4.2292508E-001	-9.750050451578982E-001
-4.2194888E-001	-9.685574365710785E-001
-4.2089567E-001	-9.622568292198395E-001
-4.2001599E-001	-9.560082371219707E-001
-4.1900009E-001	-9.496292287000934E-001
-4.1795322E-001	-9.434295961702301E-001
-4.1696313E-001	-9.375587460696693E-001
-4.1592678E-001	-9.309368344644700E-001
-4.1495571E-001	-9.249159314290196E-001
-4.1388512E-001	-9.185833567391199E-001
-4.1302636E-001	-9.124266743935916E-001
-4.1199541E-001	-9.061183080904947E-001
-4.1096273E-001	-8.998421641234220E-001
-4.1002965E-001	-8.935819855994644E-001
-4.0896624E-001	-8.874969943254065E-001
-4.0793744E-001	-8.809616850263833E-001
-4.0694615E-001	-8.747437295538418E-001
-4.0590650E-001	-8.686569978793446E-001
-4.0496916E-001	-8.625415635875489E-001
-4.0396684E-001	-8.562581435673744E-001
-4.0292871E-001	-8.502773964018751E-001
-4.0205261E-001	-8.435984490287343E-001
-4.0094864E-001	-8.375668611239506E-001
-3.9996144E-001	-8.314114269559005E-001
-3.9898551E-001	-8.256586218490041E-001
-3.9793989E-001	-8.189362568987733E-001
-3.9692801E-001	-8.128614960997202E-001
-3.9602467E-001	-8.069998807172230E-001
-3.9500716E-001	-8.005691990256310E-001
-3.9390138E-001	-7.946036612545999E-001
-3.9297509E-001	-7.880901919605652E-001
-3.9202532E-001	-7.819597360298616E-001
-3.9103812E-001	-7.758977171033656E-001
-3.8990521E-001	-7.699953205485466E-001
-3.8893184E-001	-7.634671692632971E-001
-3.8794205E-001	-7.572091881323750E-001
-3.8699526E-001	-7.511257792008283E-001
-3.8590777E-001	-7.450645359026051E-001
-3.8495937E-001	-7.391280755400658E-001
-3.8395342E-001	-7.328104027333957E-001
-3.8289642E-001	-7.267013619205471E-001
-3.8194102E-001	-7.206833853765744E-001
-3.8098103E-001	-7.144737128280285E-001
-3.7996164E-001	-7.082540930973162E-001
-3.7901172E-001	-7.023324173081793E-001
-3.7803546E-001	-6.961673323604582E-001
-3.7693435E-001	-6.901125728532111E-001
-3.7588599E-001	-6.842088290938637E-001
-3.7497866E-001	-6.778316295418279E-001
-3.7395123E-001	-6.716239484096012E-001
-3.7293172E-001	-6.655919359376039E-001
-3.7186280E-001	-6.594029269254680E-001
-3.7093943E-001	-6.532557770195950E-001
-3.7000287E-001	-6.471992751790419E-001
-3.6904877E-001	-6.410192232652950E-001
-3.6797518E-001	-6.350697227926139E-001
-3.6701104E-001	-6.288455314934271E-001
-3.6584571E-001	-6.232116142599464E-001
-3.6488155E-001	-6.167587157752799E-001
-3.6398780E-001	-6.107989116399377E-001
-3.6293417E-001	-6.048151391517882E-001
-3.6196342E-001	-5.984493337433623E-001
-3.6103332E-001	-5.924988971954130E-001
-3.6003986E-001	-5.867773815179671E-001
-3.5897440E-001	-5.805131949622329E-001
-3.5798404E-001	-5.746284157504511E-001
-3.5699269E-001	-5.685044711248750E-001
-3.5599229E-001	-5.625528254442767E-001
-3.5502946E-001	-5.563991222158933E-001
-3.5402316E-001	-5.504403638618944E-001
-3.5297310E-001	-5.445092748160718E-001
-3.5197726E-001	-5.382908658543499E-001
-3.5107541E-001	-5.318090503138535E-001
-3.4999713E-001	-5.261275347460206E-001
-3.4900895E-001	-5.204026257028680E-001
-3.4797576E-001	-5.145197490713105E-001
-3.4705895E-001	-5.084397935618972E-001
-3.4602448E-001	-5.026005574135533E-001
-3.4492368E-001	-4.966563199543286E-001
-3.4402958E-001	-4.902505440016576E-001
-3.4295601E-001	-4.848314862185945E-001
-3.4203258E-001	-4.785075607123197E-001
-3.4105489E-001	-4.724910999475789E-001
-3.4000161E-001	-4.666456410562194E-001
-3.3898389E-001	-4.607363538471629E-001
-3.3795786E-001	-4.549148575299302E-001
-3.3704942E-001	-4.490443872563414E-001
-3.3579031E-001	-4.422069750183582E-001
-3.3487523E-001	-4.358986206352728E-001
-3.3387852E-001	-4.300665238421322E-001
-3.3263433E-001	-4.240508641771703E-001
-3.3165914E-001	-4.180995621201067E-001
-3.3080366E-001	-4.122756063857098E-001
-3.2958347E-001	-4.063476328910494E-001
-3.2857609E-001	-4.004606214110513E-001
-3.2762963E-001	-3.946446684533615E-001
-3.2686445E-001	-3.886344243461908E-001
-3.2572338E-001	-3.830124736867023E-001
-3.2471454E-001	-3.769081422923772E-001
-3.2373577E-001	-3.711060902310754E-001
-3.2269678E-001	-3.650888366348770E-001
-3.2180738E-001	-3.592897058907042E-001
-3.2102433E-001	-3.527166958622372E-001
-3.1965232E-001	-3.473194810320388E-001
-3.1883287E-001	-3.415360399604359E-001
-3.1787342E-001	-3.357740634431441E-001
-3.1685120E-001	-3.298651796455188E-001
-3.1576511E-001	-3.240613124847735E-001
-3.1473988E-001	-3.181943883429524E-001
-3.1389907E-001	-3.123234891988957E-001
-3.1280693E-001	-3.065916817911241E-001
-3.1170452E-001	-3.008625847115018E-001
-3.1080395E-001	-2.947132025199126E-001
-3.0975550E-001	-2.891610532102207E-001
-3.0876234E-001	-2.831204790553001E-001
-3.0764982E-001	-2.773078726357183E-001
-3.0669537E-001	-2.715043048546821E-001
-3.0569178E-001	-2.652952572399805E-001
-3.0461574E-001	-2.597005166435515E-001
-3.0353594E-001	-2.540251031449001E-001
-3.0263650E-001	-2.483282127866029E-001
-3.0181369E-001	-2.426206238448421E-001
-3.0064741E-001	-2.369586050993304E-001
-2.9961199E-001	-2.313293710144029E-001
-2.9866883E-001	-2.253673980352812E-001
-2.9778644E-001	-2.194748922009713E-001
-2.9677245E-001	-2.137524739804642E-001
-2.9571083E-001	-2.078229823783393E-001
-2.9467240E-001	-2.021872751345786E-001
-2.9368749E-001	-1.964546232829223E-001
-2.9272538E-001	-1.906786934844149E-001
-2.9163814E-001	-1.848722162001106E-001
-2.9070649E-001	-1.796468094991592E-001
-2.8969765E-001	-1.735728680708420E-001
-2.8869551E-001	-1.676758644688447E-001
-2.8791448E-001	-1.619932253465617E-001
-2.8686973E-001	-1.562593118380962E-001
-2.8586680E-001	-1.506188499258347E-001
-2.8460079E-001	-1.448545864507280E-001
-2.8380254E-001	-1.390913005809802E-001
-2.8265730E-001	-1.331251454712064E-001
-2.8164101E-001	-1.275674810771035E-001
-2.8063875E-001	-1.219363596538894E-001
-2.7978340E-001	-1.161544963682966E-001
-2.7874228E-001	-1.104309676146065E-001
-2.7775967E-001	-1.047862358220237E-001
-2.7662799E-001	-9.917955162624559E-002
-2.7575213E-001	-9.348329552449330E-002
-2.7478141E-001	-8.767715538753484E-002
-2.7374753E-001	-8.208865091998008E-002
-2.7264702E-001	-7.630888263143043E-002
-2.7184525E-001	-7.068210107111933E-002
-2.7074000E-001	-6.496200638961169E-002
-2.6984355E-001	-5.936508370494398E-002
-2.6894125E-001	-5.379891647946711E-002
-2.6782006E-001	-4.820069506833380E-002
-2.6664719E-001	-4.171734671065162E-002
-2.6563454E-001	-3.547863556175590E-002
-2.6437470E-001	-2.981267872490669E-002
-2.6359016E-001	-2.417254018805948E-002
-2.6255885E-001	-1.853883983481128E-002
-2.6143140E-001	-1.280400084969759E-002
-2.6049560E-001	-7.261959378276389E-003
-2.5948387E-001	-1.621270097681800E-003
-2.5843722E-001	4.228316149911489E-003
-2.5724632E-001	9.671940297677595E-003
-2.5637707E-001	1.518754557602941E-002
-2.5544560E-001	2.080203947197232E-002
-2.5431737E-001	2.665919029286054E-002
-2.5341767E-001	3.213119181735374E-002
-2.5230440E-001	3.791054789218373E-002
-2.5146383E-001	4.322493492076071E-002
-2.5051451E-001	4.912570644497705E-002
-2.4946806E-001	5.450528926492010E-002
-2.4831428E-001	6.009962193962270E-002
-2.4731132E-001	6.574432765720073E-002
-2.4641977E-001	7.123317786802885E-002
-2.4532679E-001	7.649678670082805E-002
-2.4441221E-001	8.241345505747533E-002
-2.4342094E-001	8.810162105321595E-002
-2.4229528E-001	9.356157221700578E-002
-2.4150479E-001	9.903018685333720E-002
-2.4035463E-001	1.044776170445534E-001
-2.3931199E-001	1.107154000818971E-001
-2.3824926E-001	1.169046855842071E-001
-2.3722363E-001	1.222777595502083E-001
-2.3621340E-001	1.279251536401373E-001
-2.3497552E-001	1.333080580527035E-001
-2.3410280E-001	1.390463748636348E-001
-2.3303504E-001	1.442902350328636E-001
-2.3215356E-001	1.498541584652333E-001
-2.3114066E-001	1.553629897017448E-001
-2.3029406E-001	1.608935197764314E-001
-2.2916195E-001	1.661113939179043E-001
-2.2808474E-001	1.716187905727168E-001
-2.2690620E-001	1.772282264478831E-001
-2.2618687E-001	1.828253035330096E-001
-2.2505134E-001	1.878842043310951E-001
-2.2412412E-001	1.936389162256149E-001
-2.2320372E-001	1.991020704930027E-001
-2.2229134E-001	2.040667056302121E-001
-2.2124766E-001	2.095619355569847E-001
-2.2001140E-001	2.152696819286111E-001
-2.1912815E-001	2.206562537949024E-001
-2.1825966E-001	2.261553541584697E-001
-2.1727282E-001	2.314576394511045E-001
-2.1602130E-001	2.371993614247661E-001
-2.1503489E-001	2.424713055499743E-001
-2.1402262E-001	2.476887840570682E-001
-2.1314579E-001	2.529430053994095E-001
-2.1206935E-001	2.585409051842165E-001
-2.1121280E-001	2.637315462170937E-001
-2.1030246E-001	2.694435969918816E-001
-2.0916171E-001	2.746338601120648E-001
-2.0803830E-001	2.798186599587393E-001
-2.0709774E-001	2.852505721474203E-001
-2.0617837E-001	2.910650277303306E-001
-2.0514445E-001	2.961305095986640E-001
-2.0398666E-001	3.010694938528600E-001
-2.0314939E-001	3.064359665192948E-001
-2.0209301E-001	3.120789259189261E-001
-2.0101221E-001	3.173940427905437E-001
-2.0011003E-001	3.226420540293602E-001
-1.9912595E-001	3.280750735904325E-001
-1.9802253E-001	3.333339181662733E-001
-1.9710292E-001	3.387930187638162E-001
-1.9617614E-001	3.439497370617810E-001
-1.9517787E-001	3.492046901853696E-001
-1.9408093E-001	3.546148173993933E-001
-1.9311915E-001	3.599536425813493E-001
-1.9202161E-001	3.652911054316812E-001
-1.9108190E-001	3.705289606694806E-001
-1.8990669E-001	3.755277484241457E-001
-1.8914407E-001	3.809468605227648E-001
-1.8796426E-001	3.862629150971770E-001
-1.8708159E-001	3.913459010353240E-001
-1.8620269E-001	3.966703832591172E-001
-1.8525581E-001	4.019809690200631E-001
-1.8405941E-001	4.073879617369842E-001
-1.8288252E-001	4.128127666708832E-001
-1.8193898E-001	4.174457383514572E-001
-1.8123069E-001	4.230376938702873E-001
-1.7999089E-001	4.281926082756726E-001
-1.7909032E-001	4.332930584334651E-001
-1.7811306E-001	4.384788710761960E-001
-1.7709018E-001	4.436576267135193E-001
-1.7609338E-001	4.488564932511920E-001
-1.7507923E-001	4.540462092392970E-001
-1.7411941E-001	4.590351758320068E-001
-1.7326444E-001	4.643960805540859E-001
-1.7210560E-001	4.694981684701283E-001
-1.7108744E-001	4.747938080644047E-001
-1.7021322E-001	4.798063355049610E-001
-1.6899772E-001	4.850347482909747E-001
-1.6808666E-001	4.903044956885516E-001
-1.6701815E-001	4.952951146082762E-001
-1.6619806E-001	5.004114114024034E-001
-1.6513383E-001	5.053734592654511E-001
-1.6407235E-001	5.108308028429711E-001
-1.6293174E-001	5.157998245623410E-001
-1.6220032E-001	5.210520066140945E-001
-1.6109513E-001	5.259910927464562E-001
-1.6012868E-001	5.307158630479254E-001
-1.5907717E-001	5.356165130657176E-001
-1.5821232E-001	5.407257035236683E-001
-1.5722872E-001	5.460980405205467E-001
-1.5629278E-001	5.510986588067484E-001
-1.5518570E-001	5.561838719855854E-001
-1.5414459E-001	5.611124007123733E-001
-1.5325087E-001	5.664374891116672E-001
-1.5200864E-001	5.715347690576742E-001
-1.5109605E-001	5.766583126010523E-001
-1.5006749E-001	5.817442962692869E-001
-1.4917316E-001	5.868136297083569E-001
-1.4805911E-001	5.920014415987360E-001
-1.4693500E-001	5.968991607703549E-001
-1.4613548E-001	6.019995404338410E-001
-1.4505371E-001	6.070886227444434E-001
-1.4402865E-001	6.122985385634268E-001
-1.4315510E-001	6.173834336438677E-001
-1.4201275E-001	6.223054040712892E-001
-1.4109428E-001	6.270031994553622E-001
-1.4016686E-001	6.322891192717695E-001
-1.3902631E-001	6.373626671217778E-001
-1.3815905E-001	6.426384290335339E-001
-1.3700362E-001	6.475490217821465E-001
-1.3618912E-001	6.526253017316765E-001
-1.3505735E-001	6.575593318514261E-001
-1.3408199E-001	6.624799959913457E-001
-1.3310233E-001	6.674193028786375E-001
-1.3207145E-001	6.722302036014991E-001
-1.3109501E-001	6.772835947987108E-001
-1.3023384E-001	6.823225631438843E-001
-1.2925588E-001	6.874853767868547E-001
-1.2791882E-001	6.919356492796434E-001
-1.2715028E-001	6.973555941689114E-001
-1.2605359E-001	7.019214549412318E-001
-1.2508248E-001	7.070905188167522E-001
-1.2422445E-001	7.117605555168538E-001
-1.2309187E-001	7.167529700392876E-001
-1.2197968E-001	7.217042822114870E-001
-1.2130317E-001	7.267581072524809E-001
-1.2014224E-001	7.317808739564997E-001
-1.1898252E-001	7.363235910457591E-001
-1.1801221E-001	7.413928096171318E-001
-1.1706469E-001	7.461074905952891E-001
-1.1597393E-001	7.511645888012879E-001
-1.1519581E-001	7.562434301330967E-001
-1.1406288E-001	7.606467511504897E-001
-1.1304509E-001	7.658045127022053E-001
-1.1201299E-001	7.706434518936440E-001
-1.1090642E-001	7.756017823876071E-001
-1.1016630E-001	7.801136164753526E-001
-1.0894578E-001	7.852262062941389E-001
-1.0804673E-001	7.901723544906680E-001
-1.0702788E-001	7.948830326398166E-001
-1.0611052E-001	7.996707175429982E-001
-1.0518237E-001	8.043927264710273E-001
-1.0406636E-001	8.091411785119114E-001
-1.0316694E-001	8.141516848688219E-001
-1.0204650E-001	8.189205029220519E-001
-1.0102934E-001	8.237191869152891E-001
-1.0009596E-001	8.284767136318756E-001
-9.9029206E-002	8.332641578658873E-001
-9.7963892E-002	8.380856233890412E-001
-9.7048551E-002	8.427392166593810E-001
-9.6095257E-002	8.475587819185497E-001
-9.5054783E-002	8.523033832510334E-001
-9.4196729E-002	8.569721984474548E-001
-9.3039133E-002	8.618365388225619E-001
-9.2151955E-002	8.663408294704196E-001
-9.1036446E-002	8.712761425585660E-001
-9.0133198E-002	8.760273369650022E-001
-8.9176260E-002	8.805089517512803E-001
-8.8111632E-002	8.849990605204212E-001
-8.7105304E-002	8.901687040924990E-001
-8.6067788E-002	8.946376779785865E-001
-8.5097723E-002	8.993403583213162E-001
-8.3865903E-002	9.038921004092271E-001
-8.3021484E-002	9.088868174688294E-001
-8.2361497E-002	9.135260408123305E-001
-8.0958687E-002	9.179612712727661E-001
-8.0198959E-002	9.227362387632629E-001
-7.9111278E-002	9.272866839611977E-001
-7.8041516E-002	9.321282307306902E-001
-7.7089526E-002	9.365700324594783E-001
-7.5923428E-002	9.415050642909844E-001
-7.5031430E-002	9.458560026078295E-001
-7.4181780E-002	9.506071654498989E-001
-7.3145837E-002	9.551669626876205E-001
-7.2050832E-002	9.598828040891219E-001
-7.1074642E-002	9.645337088591539E-001
-7.0063412E-002	9.690165654928613E-001
-6.9061749E-002	9.736437465029741E-001
-6.8062745E-002	9.785362256880923E-001
-6.6987775E-002	9.826955820123380E-001
-6.6080503E-002	9.874599309707115E-001
-6.5162666E-002	9.920336035933750E-001
-6.4117052E-002	9.966078007386798E-001
-6.3193239E-002	1.000865731250357E+000
-6.2075023E-002	1.005678272173771E+000
-6.1106540E-002	1.009973426521935E+000
-5.9989471E-002	1.014758467260334E+000
-5.9021596E-002	1.019147960024284E+000
-5.8123816E-002	1.023566100194497E+000
-5.6957748E-002	1.028449181053374E+000
-5.6108478E-002	1.033129002387774E+000
-5.5023141E-002	1.037183968005355E+000
-5.4041002E-002	1.041771041850250E+000
-5.3178102E-002	1.046133065621413E+000
-5.2169818E-002	1.050871103312133E+000
-5.1073972E-002	1.055134637902178E+000
-5.0120931E-002	1.059700973006549E+000
-4.9080186E-002	1.064395069524092E+000
-4.8090186E-002	1.068750418584656E+000
-4.7035355E-002	1.073125346573523E+000
-4.6127584E-002	1.077780807735742E+000
-4.5118071E-002	1.082005735624723E+000
-4.4213783E-002	1.086219330056831E+000
-4.2987462E-002	1.091056679134013E+000
-4.2020373E-002	1.095449587951103E+000
-4.0893301E-002	1.100746920567520E+000
-3.9776068E-002	1.106282959243766E+000
-3.8903896E-002	1.110408071829553E+000
-3.7916556E-002	1.114958892817850E+000
-3.6796737E-002	1.119435216679616E+000
-3.5963271E-002	1.123729826086165E+000
-3.4872953E-002	1.127824932474780E+000
-3.3778161E-002	1.132190014201180E+000
-3.2961190E-002	1.136317829544739E+000
-3.1885348E-002	1.141101242629470E+000
-3.0950291E-002	1.145290830896961E+000
-2.9906576E-002	1.149494064694577E+000
-2.8813107E-002	1.153801701549030E+000
-2.7836259E-002	1.158389440565195E+000
-2.6854901E-002	1.162829513581027E+000
-2.5884900E-002	1.166665197108630E+000
-2.4923543E-002	1.171313564120620E+000
-2.3886673E-002	1.175346752457523E+000
-2.2843629E-002	1.179735295060607E+000
-2.1863602E-002	1.183832657419976E+000
-2.0998940E-002	1.188748923939304E+000
-1.9912453E-002	1.192407622519466E+000
-1.8830605E-002	1.196801987373163E+000
-1.7920557E-002	1.201031227358952E+000
-1.6900245E-002	1.205378388779030E+000
-1.5916396E-002	1.209485547410127E+000
-1.4931195E-002	1.213680034279508E+000
-1.3904793E-002	1.217650028152601E+000
-1.2855822E-002	1.222083089942186E+000
-1.1830855E-002	1.226086819024683E+000
-1.0853339E-002	1.230612294403493E+000
-9.9564642E-003	1.234145160488509E+000
-8.7765949E-003	1.238898832868621E+000
-7.8383721E-003	1.242993440754987E+000
-6.8695853E-003	1.247150699573535E+000
-5.8114557E-003	1.251155226869109E+000
-4.8212837E-003	1.255461928745108E+000
-3.9008628E-003	1.259388238191605E+000
-2.9478297E-003	1.263772568947203E+000
-1.9429263E-003	1.267417099050906E+000
-9.2259352E-004	1.271951893137562E+000
1.3552736E-004	1.276358283660102E+000
1.0351300E-003	1.280253307548938E+000
1.9950063E-003	1.284308295834947E+000
3.0867816E-003	1.288442094562814E+000
4.1381288E-003	1.292441287940306E+000
5.1531577E-003	1.296639779237690E+000
6.1061755E-003	1.300520572029896E+000
6.8349056E-003	1.302803511420886E+000
6.6325362E-003	1.302816197276115E+000