EC-Lab ASCII FILE
Nb header lines : 63                          

Linear Sweep Voltammetry

Run on channel : 6 (SN 13765)
User : 
Electrode connection : standard
Potential control : Ewe
Ewe ctrl range : min = -2.50 V, max = 2.50 V
Ewe,I filtering : <None>
Safety Limits :
	Do not start on E overload
Channel : Floating
Acquisition started on : 07/13/2026 15:44:23.046
Technique started on : 07/13/2026 15:44:24.043
Loaded Setting File :  C:\Users\EEM-620\Desktop\Wade\20260630\LSV 1mg MoS2 1_C06.mpr
Saved on :
	File : N719_0713-b-5_C06.mpr
	Directory : C:\Users\EEM-620\Desktop\Wade\abao\20260713\
	Host : 192.109.209.200
Device : VSP-300 (SN 0025)
Address : 192.109.209.129
EC-LAB for windows v11.62 (software)
Internet server v27.00 (firmware)
Command interpretor v12.02 (firmware)
Electrode material : Au/Pd
Initial state : 
Electrolyte : NaCl (0.2M)
Comments : Fe(CN)63-/Fe(CN)64- 5.10-3 M
Cable : ULC
Reference electrode : SCE Saturated Calomel Electrode (0.241 V)
Electrode surface area : 0.001 cm2
Characteristic mass : 0.001 g
Equivalent Weight : 0.000 g/eq.
Density : 0.000 g/cm3
Volume (V) : 0.001 cm3
Cycle Definition : Charge/Discharge alternance
tR (h:m:s)          0:00:5.0000         
dER/dt (mV/h)       0.0                 
dER (mV)            0                   
dtR (s)             0.0500              
dE/dt               10.000              
dE/dt unit          mV/s                
Ei (V)              -0.800              
vs.                 Ref                 
EL (V)              0.010               
vs.                 Ref                 
record              <I>                 
dI                  0.000               
unit dI             uA                  
tI (s)              0.0000              
step percent        50                  
N                   10                  
E range min (V)     -2.500              
E range max (V)     2.500               
I Range             Auto                
I Range min         Unset               
I Range max         Unset               
I Range init        Unset               
Bandwidth           8                   

Ewe/V	<I>/mA	
-6.0817373E-001	0.000000000000000E+000
-6.0795987E-001	0.000000000000000E+000
-6.0800570E-001	0.000000000000000E+000
-6.0844481E-001	0.000000000000000E+000
-6.0860902E-001	0.000000000000000E+000
-6.0789502E-001	0.000000000000000E+000
-6.0821950E-001	0.000000000000000E+000
-6.0853261E-001	0.000000000000000E+000
-6.0805917E-001	0.000000000000000E+000
-6.0855174E-001	0.000000000000000E+000
-6.0833406E-001	0.000000000000000E+000
-6.0831881E-001	0.000000000000000E+000
-6.0805535E-001	0.000000000000000E+000
-6.0862046E-001	0.000000000000000E+000
-6.0794461E-001	0.000000000000000E+000
-6.0854793E-001	0.000000000000000E+000
-6.0801721E-001	0.000000000000000E+000
-6.0850972E-001	0.000000000000000E+000
-6.0837227E-001	0.000000000000000E+000
-6.0779953E-001	0.000000000000000E+000
-6.0807443E-001	0.000000000000000E+000
-6.0829210E-001	0.000000000000000E+000
-6.0847539E-001	0.000000000000000E+000
-6.0805154E-001	0.000000000000000E+000
-6.0808593E-001	0.000000000000000E+000
-6.0844481E-001	0.000000000000000E+000
-6.0837990E-001	0.000000000000000E+000
-6.0855556E-001	0.000000000000000E+000
-6.0827297E-001	0.000000000000000E+000
-6.0807824E-001	0.000000000000000E+000
-6.0804009E-001	0.000000000000000E+000
-6.0876173E-001	0.000000000000000E+000
-6.0906720E-001	0.000000000000000E+000
-6.0847533E-001	0.000000000000000E+000
-6.0832262E-001	0.000000000000000E+000
-6.0781479E-001	0.000000000000000E+000
-6.0821956E-001	0.000000000000000E+000
-6.0860902E-001	0.000000000000000E+000
-6.0894501E-001	0.000000000000000E+000
-6.0863954E-001	0.000000000000000E+000
-6.0900229E-001	0.000000000000000E+000
-6.0845625E-001	0.000000000000000E+000
-6.0815078E-001	0.000000000000000E+000
-6.0826534E-001	0.000000000000000E+000
-6.0857844E-001	0.000000000000000E+000
-6.0856318E-001	0.000000000000000E+000
-6.0854030E-001	0.000000000000000E+000
-6.0842574E-001	0.000000000000000E+000
-6.0886484E-001	0.000000000000000E+000
-6.0831499E-001	0.000000000000000E+000
-6.0870063E-001	0.000000000000000E+000
-6.0854793E-001	0.000000000000000E+000
-6.0844862E-001	0.000000000000000E+000
-6.0855556E-001	0.000000000000000E+000
-6.0891068E-001	0.000000000000000E+000
-6.0829973E-001	0.000000000000000E+000
-6.0839522E-001	0.000000000000000E+000
-6.0876173E-001	0.000000000000000E+000
-6.0868537E-001	0.000000000000000E+000
-6.0818136E-001	0.000000000000000E+000
-6.0845625E-001	0.000000000000000E+000
-6.1404622E-001	0.000000000000000E+000
-6.1419135E-001	0.000000000000000E+000
-7.8972965E-001	-1.542643930601038E+000
-7.8884560E-001	-1.534407175990790E+000
-7.8766716E-001	-1.521415403733648E+000
-7.8674710E-001	-1.509960353512451E+000
-7.8575796E-001	-1.499051123821186E+000
-7.8468001E-001	-1.488847089310489E+000
-7.8382927E-001	-1.478456198755239E+000
-7.8275150E-001	-1.468816568358633E+000
-7.8169197E-001	-1.458942956670573E+000
-7.8087008E-001	-1.449544974361299E+000
-7.7982748E-001	-1.440372353934120E+000
-7.7880079E-001	-1.431562413909920E+000
-7.7782148E-001	-1.421966386062127E+000
-7.7684569E-001	-1.412616180474792E+000
-7.7581197E-001	-1.403803520732453E+000
-7.7481395E-001	-1.394688797769717E+000
-7.7378350E-001	-1.385676471962174E+000
-7.7285832E-001	-1.376598365190959E+000
-7.7191812E-001	-1.367646824982429E+000
-7.7088368E-001	-1.358650081901219E+000
-7.6975930E-001	-1.349803201026385E+000
-7.6870477E-001	-1.340853926208285E+000
-7.6784706E-001	-1.331341277923750E+000
-7.6677233E-001	-1.322463298975320E+000
-7.6576006E-001	-1.313409445462402E+000
-7.6483244E-001	-1.304801741878453E+000
-7.6382416E-001	-1.295619996471544E+000
-7.6273364E-001	-1.287118924574716E+000
-7.6182681E-001	-1.278056984356392E+000
-7.6082200E-001	-1.269486510919204E+000
-7.5981253E-001	-1.260848189255709E+000
-7.5874865E-001	-1.251914867396422E+000
-7.5783759E-001	-1.243170631566535E+000
-7.5675893E-001	-1.234194257745038E+000
-7.5581849E-001	-1.225427997896921E+000
-7.5481617E-001	-1.216946966946123E+000
-7.5382638E-001	-1.207733177461948E+000
-7.5283456E-001	-1.198607673523606E+000
-7.5176388E-001	-1.189622761474719E+000
-7.5080353E-001	-1.180816645095546E+000
-7.4985415E-001	-1.172459639746830E+000
-7.4879760E-001	-1.163705947360508E+000
-7.4778098E-001	-1.154804580858500E+000
-7.4677259E-001	-1.146204930902629E+000
-7.4582124E-001	-1.137875902018060E+000
-7.4482298E-001	-1.128969081770656E+000
-7.4381620E-001	-1.120165141782280E+000
-7.4280906E-001	-1.111373323533270E+000
-7.4184293E-001	-1.102491985587926E+000
-7.4078912E-001	-1.093282249652678E+000
-7.3985511E-001	-1.085220907987262E+000
-7.3880225E-001	-1.077196850022133E+000
-7.3776609E-001	-1.068122477857049E+000
-7.3685050E-001	-1.059471471718066E+000
-7.3585713E-001	-1.051111003210419E+000
-7.3478436E-001	-1.042627191240035E+000
-7.3379725E-001	-1.033077626868536E+000
-7.3280543E-001	-1.024789690465385E+000
-7.3181546E-001	-1.016301395164594E+000
-7.3078668E-001	-1.007689485533366E+000
-7.2986215E-001	-9.987928059009441E-001
-7.2893250E-001	-9.901886862461211E-001
-7.2779632E-001	-9.812227435134049E-001
-7.2679770E-001	-9.725747075892479E-001
-7.2577256E-001	-9.638652300669079E-001
-7.2490007E-001	-9.551212081202731E-001
-7.2383630E-001	-9.463752216389327E-001
-7.2286052E-001	-9.379501684948259E-001
-7.2177696E-001	-9.292510901060389E-001
-7.2081274E-001	-9.206785203179049E-001
-7.1984959E-001	-9.121505172440312E-001
-7.1891671E-001	-9.033792946073795E-001
-7.1779662E-001	-8.948095931509643E-001
-7.1676421E-001	-8.865647858215682E-001
-7.1581942E-001	-8.779068913448747E-001
-7.1482599E-001	-8.690079552961683E-001
-7.1380460E-001	-8.602821284698119E-001
-7.1291804E-001	-8.517866286414666E-001
-7.1183175E-001	-8.435519007698815E-001
-7.1089357E-001	-8.354011155940839E-001
-7.0980620E-001	-8.270207444826809E-001
-7.0891225E-001	-8.186569090189852E-001
-7.0783955E-001	-8.099965458666831E-001
-7.0696282E-001	-8.011066038851382E-001
-7.0586044E-001	-7.927936964747779E-001
-7.0482802E-001	-7.839452255931185E-001
-7.0385689E-001	-7.753147430441971E-001
-7.0291334E-001	-7.667313030552414E-001
-7.0186651E-001	-7.584215580589255E-001
-7.0080143E-001	-7.497441501667126E-001
-6.9982874E-001	-7.410953961791868E-001
-6.9895142E-001	-7.323457956038162E-001
-6.9786215E-001	-7.237940219541414E-001
-6.9689536E-001	-7.150987674588656E-001
-6.9583869E-001	-7.066045646314283E-001
-6.9484228E-001	-6.983125539565531E-001
-6.9386500E-001	-6.899433560045569E-001
-6.9287944E-001	-6.814129540903728E-001
-6.9193637E-001	-6.731825949003296E-001
-6.9089395E-001	-6.647015010515105E-001
-6.8987370E-001	-6.565534609059522E-001
-6.8871355E-001	-6.481839505344311E-001
-6.8771464E-001	-6.394894921945227E-001
-6.8683124E-001	-6.310450289812355E-001
-6.8583691E-001	-6.225587019997372E-001
-6.8474114E-001	-6.140979988569457E-001
-6.8381143E-001	-6.057653953493736E-001
-6.8284303E-001	-5.968804793320910E-001
-6.8185693E-001	-5.888832719927573E-001
-6.8082958E-001	-5.803307394186659E-001
-6.7986572E-001	-5.717435406379017E-001
-6.7883283E-001	-5.636712299590868E-001
-6.7788595E-001	-5.552045008926472E-001
-6.7682576E-001	-5.468781181320725E-001
-6.7590356E-001	-5.385736083542829E-001
-6.7481005E-001	-5.305455798904095E-001
-6.7392385E-001	-5.219815382229804E-001
-6.7284870E-001	-5.136570748355656E-001
-6.7187887E-001	-5.055307861141598E-001
-6.7083311E-001	-4.972531694234306E-001
-6.6980422E-001	-4.884676705631934E-001
-6.6890544E-001	-4.807042614039450E-001
-6.6786832E-001	-4.716123509849677E-001
-6.6678971E-001	-4.633478971405154E-001
-6.6584682E-001	-4.548771304112904E-001
-6.6475213E-001	-4.463241315567874E-001
-6.6342854E-001	-4.370295653740555E-001
-6.6266209E-001	-4.286784412408329E-001
-6.6168410E-001	-4.204701849871682E-001
-6.6064775E-001	-4.118058442103640E-001
-6.5962130E-001	-4.037654846216796E-001
-6.5865457E-001	-3.953977943677351E-001
-6.5757185E-001	-3.868897608653818E-001
-6.5631914E-001	-3.789634178565042E-001
-6.5557820E-001	-3.706887508661509E-001
-6.5463525E-001	-3.621030839642998E-001
-6.5355420E-001	-3.539374938441648E-001
-6.5258527E-001	-3.454594651329659E-001
-6.5168184E-001	-3.372377555955346E-001
-6.5044361E-001	-3.290701011126798E-001
-6.4951026E-001	-3.210977282474070E-001
-6.4877355E-001	-3.127582160135116E-001
-6.4753407E-001	-3.044431308905304E-001
-6.4665478E-001	-2.961333345384873E-001
-6.4545500E-001	-2.878972535814950E-001
-6.4478940E-001	-2.795751311060766E-001
-6.4350641E-001	-2.714352812273075E-001
-6.4256364E-001	-2.632515341112462E-001
-6.4170045E-001	-2.547144948488542E-001
-6.4053494E-001	-2.462493908695048E-001
-6.3955128E-001	-2.382561041870046E-001
-6.3866287E-001	-2.303764066541040E-001
-6.3745016E-001	-2.223926482515204E-001
-6.3658363E-001	-2.140905083398574E-001
-6.3553333E-001	-2.057748584899899E-001
-6.3464969E-001	-1.975346721915727E-001
-6.3372284E-001	-1.894157770676204E-001
-6.3238037E-001	-1.809784981856000E-001
-6.3136423E-001	-1.732990874701894E-001
-6.3060695E-001	-1.647384921261283E-001
-6.2945950E-001	-1.568623643295068E-001
-6.2844515E-001	-1.484254786089338E-001
-6.2768406E-001	-1.402391636813129E-001
-6.2664151E-001	-1.319864830680970E-001
-6.2559289E-001	-1.241573055309282E-001
-6.2450933E-001	-1.160979744529835E-001
-6.2354624E-001	-1.077147013336313E-001
-6.2245387E-001	-9.941563621611782E-002
-6.2155169E-001	-9.145997180086041E-002
-6.2078339E-001	-8.331552396924402E-002
-6.1967748E-001	-7.525508174741680E-002
-6.1843342E-001	-6.701271751619609E-002
-6.1757129E-001	-5.874914106486528E-002
-6.1659127E-001	-5.096567183715761E-002
-6.1534566E-001	-4.171682354192141E-002
-6.1432666E-001	-3.249135571155271E-002
-6.1334574E-001	-2.430670279405867E-002
-6.1237568E-001	-1.629574076677850E-002
-6.1120915E-001	-7.962797909765937E-003
-6.1024630E-001	-1.382600150723984E-004
-6.0919160E-001	8.136980913049124E-003
-6.0823119E-001	1.612825727092965E-002
-6.0740829E-001	2.424141267504276E-002
-6.0625225E-001	3.243584499728902E-002
-6.0515010E-001	4.052778341456333E-002
-6.0430658E-001	4.862426847426438E-002
-6.0322493E-001	5.669982192382506E-002
-6.0242879E-001	6.449914071633928E-002
-6.0142648E-001	7.269893008008321E-002
-6.0011250E-001	8.067563173969679E-002
-5.9923732E-001	8.911672507033286E-002
-5.9833282E-001	9.702790607870732E-002
-5.9706277E-001	1.050504855097945E-001
-5.9623724E-001	1.139867376274058E-001
-5.9498316E-001	1.229895242248418E-001
-5.9384102E-001	1.311677795413715E-001
-5.9306610E-001	1.392656092669955E-001
-5.9193021E-001	1.471746066688659E-001
-5.9094155E-001	1.553346357364510E-001
-5.8991504E-001	1.633293750799361E-001
-5.8906418E-001	1.711855117852488E-001
-5.8800566E-001	1.793681294061926E-001
-5.8686566E-001	1.868649326885747E-001
-5.8601838E-001	1.945450212289064E-001
-5.8487308E-001	2.025307568357048E-001
-5.8393359E-001	2.104306625961150E-001
-5.8288252E-001	2.184515495750077E-001
-5.8180565E-001	2.265816843961126E-001
-5.8096677E-001	2.344937522861148E-001
-5.7984847E-001	2.423958994310218E-001
-5.7894415E-001	2.504049835690302E-001
-5.7809675E-001	2.579985274760814E-001
-5.7682544E-001	2.661110527675472E-001
-5.7604784E-001	2.740775979758932E-001
-5.7494771E-001	2.815966069767319E-001
-5.7403743E-001	2.896412102229622E-001
-5.7304811E-001	2.975931162498159E-001
-5.7195711E-001	3.052499861697908E-001
-5.7089353E-001	3.131042344288684E-001
-5.6988883E-001	3.210519204343485E-001
-5.6880087E-001	3.288594470876798E-001
-5.6793326E-001	3.366456647162077E-001
-5.6699753E-001	3.445707917015519E-001
-5.6597853E-001	3.526671376355282E-001
-5.6496650E-001	3.602891072837844E-001
-5.6399357E-001	3.680036736300005E-001
-5.6301367E-001	3.759379552125370E-001
-5.6185710E-001	3.836228027249939E-001
-5.6090105E-001	3.914555033770850E-001
-5.5991423E-001	3.995124516939690E-001
-5.5903536E-001	4.070022097202371E-001
-5.5790353E-001	4.147939810622319E-001
-5.5700254E-001	4.223453249368401E-001
-5.5594617E-001	4.297712680504278E-001
-5.5503404E-001	4.378013422115812E-001
-5.5399036E-001	4.456636774595131E-001
-5.5272824E-001	4.534656293690205E-001
-5.5191040E-001	4.609865870584722E-001
-5.5100721E-001	4.688230666021509E-001
-5.4994136E-001	4.761920117889957E-001
-5.4905820E-001	4.838521629571915E-001
-5.4793519E-001	4.917902232458200E-001
-5.4693681E-001	4.996112155990193E-001
-5.4608417E-001	5.070022213514171E-001
-5.4486996E-001	5.144935729740947E-001
-5.4392803E-001	5.221910937881793E-001
-5.4307646E-001	5.300463470457875E-001
-5.4198205E-001	5.376444019515176E-001
-5.4089350E-001	5.447371671931220E-001
-5.4003155E-001	5.527753800981587E-001
-5.3901416E-001	5.605478223275235E-001
-5.3798813E-001	5.683843511258990E-001
-5.3695381E-001	5.757338810988006E-001
-5.3586328E-001	5.833175383784130E-001
-5.3491735E-001	5.913715276847062E-001
-5.3407055E-001	5.987701851322687E-001
-5.3307521E-001	6.063588412685501E-001
-5.3194314E-001	6.141383113324332E-001
-5.3080863E-001	6.215104499348874E-001
-5.2998477E-001	6.291559292348450E-001
-5.2901554E-001	6.367860941560783E-001
-5.2798671E-001	6.439521294087197E-001
-5.2705443E-001	6.518572110130822E-001
-5.2581590E-001	6.608815848581346E-001
-5.2504808E-001	6.678816281535038E-001
-5.2402461E-001	6.753112121174727E-001
-5.2293110E-001	6.827474035554015E-001
-5.2174461E-001	6.902117845084943E-001
-5.2092141E-001	6.976769990115255E-001
-5.2004707E-001	7.049266295108030E-001
-5.1909918E-001	7.127166395248081E-001
-5.1804513E-001	7.201424916447294E-001
-5.1698285E-001	7.276961156585404E-001
-5.1588398E-001	7.352475452202341E-001
-5.1495445E-001	7.429433262872500E-001
-5.1378244E-001	7.506752094898221E-001
-5.1291120E-001	7.581656018479004E-001
-5.1194119E-001	7.654978290752137E-001
-5.1104522E-001	7.730348392203261E-001
-5.0986409E-001	7.804976854197410E-001
-5.0886577E-001	7.879784543205197E-001
-5.0799394E-001	7.953995279077972E-001
-5.0693005E-001	8.032306790075925E-001
-5.0592548E-001	8.105460649563199E-001
-5.0493836E-001	8.179876267192623E-001
-5.0388926E-001	8.250744587017422E-001
-5.0297415E-001	8.327244874779840E-001
-5.0195080E-001	8.399113246409335E-001
-5.0111043E-001	8.477176830724407E-001
-4.9994132E-001	8.551658685836525E-001
-4.9884608E-001	8.625184367996011E-001
-4.9802160E-001	8.699756081181569E-001
-4.9686953E-001	8.775128987100373E-001
-4.9588871E-001	8.846252337476894E-001
-4.9503487E-001	8.921371356204695E-001
-4.9380153E-001	8.997139696169825E-001
-4.9299228E-001	9.065965952744612E-001
-4.9193671E-001	9.140771936487244E-001
-4.9096367E-001	9.210045719864191E-001
-4.9006766E-001	9.282384883618384E-001
-4.8892593E-001	9.357307796125074E-001
-4.8775336E-001	9.428733068031843E-001
-4.8695529E-001	9.502185257496691E-001
-4.8593965E-001	9.567617990628481E-001
-4.8501348E-001	9.646211035499412E-001
-4.8388860E-001	9.720571932417403E-001
-4.8281437E-001	9.793123361413105E-001
-4.8190963E-001	9.865041272666337E-001
-4.8091793E-001	9.938250512436575E-001
-4.8008645E-001	1.000372200100507E+000
-4.7895235E-001	1.008111243429115E+000
-4.7809389E-001	1.014810454100378E+000
-4.7688031E-001	1.021855266281850E+000
-4.7582623E-001	1.029336247010821E+000
-4.7491983E-001	1.036465920369935E+000
-4.7394174E-001	1.043523083268493E+000
-4.7277525E-001	1.050371553646999E+000
-4.7185695E-001	1.057744767654825E+000
-4.7076720E-001	1.064293628765487E+000
-4.6988153E-001	1.071703826895881E+000
-4.6883649E-001	1.078073609482357E+000
-4.6784899E-001	1.085313349686290E+000
-4.6687606E-001	1.092169968063153E+000
-4.6592933E-001	1.100449935447244E+000
-4.6470293E-001	1.108758685489494E+000
-4.6375418E-001	1.115870833207170E+000
-4.6276289E-001	1.122996121782947E+000
-4.6178749E-001	1.129857791932646E+000
-4.6079773E-001	1.137323024522568E+000
-4.5976737E-001	1.143668313959132E+000
-4.5868215E-001	1.150790582376494E+000
-4.5762119E-001	1.157258116078939E+000
-4.5682323E-001	1.164321630779234E+000
-4.5576072E-001	1.171344915749856E+000
-4.5470652E-001	1.178537157215054E+000
-4.5378560E-001	1.185642757211575E+000
-4.5282382E-001	1.192492633782058E+000
-4.5173404E-001	1.199744139351367E+000
-4.5071864E-001	1.206030567763026E+000
-4.4972268E-001	1.213164889702092E+000
-4.4875073E-001	1.220392234845391E+000
-4.4776925E-001	1.227084717540826E+000
-4.4672066E-001	1.233792039669224E+000
-4.4574934E-001	1.240480866457141E+000
-4.4468805E-001	1.247580742670431E+000
-4.4366753E-001	1.254219142375167E+000
-4.4270724E-001	1.260969655081370E+000
-4.4177493E-001	1.267414087636602E+000
-4.4075459E-001	1.274548263454351E+000
-4.3968379E-001	1.281832957985230E+000
-4.3862614E-001	1.288384094834328E+000
-4.3771899E-001	1.294310329120809E+000
-4.3680030E-001	1.301680807714109E+000
-4.3569067E-001	1.308500607118557E+000
-4.3471605E-001	1.314837832285324E+000
-4.3367630E-001	1.321506419115593E+000
-4.3271455E-001	1.328148623583495E+000
-4.3175635E-001	1.335333959270521E+000
-4.3070126E-001	1.342039905626461E+000
-4.2978102E-001	1.348443705588579E+000
-4.2874286E-001	1.354896750844745E+000
-4.2764556E-001	1.361469414637044E+000
-4.2683902E-001	1.368276982671691E+000
-4.2580476E-001	1.374586559167865E+000
-4.2472327E-001	1.381522078894905E+000
-4.2361259E-001	1.388379570372676E+000
-4.2277902E-001	1.395385554937942E+000
-4.2169619E-001	1.401712931968547E+000
-4.2085576E-001	1.407815777041293E+000
-4.1969019E-001	1.414797543730724E+000
-4.1875976E-001	1.421798636929857E+000
-4.1761062E-001	1.428270893240416E+000
-4.1671783E-001	1.434190218424387E+000
-4.1570616E-001	1.440800351953058E+000
-4.1469005E-001	1.447684925601440E+000
-4.1376597E-001	1.454114257693405E+000
-4.1269097E-001	1.460237540028722E+000
-4.1182041E-001	1.466865019251902E+000
-4.1075906E-001	1.472789207663084E+000
-4.0970954E-001	1.479472472435894E+000
-4.0871215E-001	1.485981998758184E+000
-4.0769136E-001	1.492281052609112E+000
-4.0671852E-001	1.498719189729954E+000
-4.0568569E-001	1.504922351489469E+000
-4.0476418E-001	1.511852864919993E+000
-4.0375090E-001	1.517288890977699E+000
-4.0268284E-001	1.523463663817562E+000
-4.0171969E-001	1.529864740650766E+000
-4.0076816E-001	1.536402307588741E+000
-3.9966169E-001	1.542431034009766E+000
-3.9872584E-001	1.548611723795851E+000
-3.9774767E-001	1.554885706691827E+000
-3.9674473E-001	1.561436493639590E+000
-3.9561734E-001	1.566843560631462E+000
-3.9472592E-001	1.573082187937365E+000
-3.9373550E-001	1.579796676006588E+000
-3.9278832E-001	1.586448316491895E+000
-3.9179432E-001	1.592344917632914E+000
-3.9071205E-001	1.598375526015413E+000
-3.8972947E-001	1.604334192805212E+000
-3.8882345E-001	1.611049101032584E+000
-3.8776407E-001	1.616846087354201E+000
-3.8667628E-001	1.623334651436843E+000
-3.8584667E-001	1.629002852848267E+000
-3.8479388E-001	1.635286061852074E+000
-3.8364738E-001	1.641299944183524E+000
-3.8277912E-001	1.647455773971700E+000
-3.8176093E-001	1.653630033963257E+000
-3.8066021E-001	1.659719752164090E+000
-3.7971386E-001	1.666001401289748E+000
-3.7879553E-001	1.672369751389379E+000
-3.7778115E-001	1.678036719440652E+000
-3.7674811E-001	1.684808694378098E+000
-3.7564629E-001	1.690434217728950E+000
-3.7474349E-001	1.696658150297434E+000
-3.7372571E-001	1.702300060126515E+000
-3.7272084E-001	1.708903053910527E+000
-3.7170541E-001	1.714718995270907E+000
-3.7080029E-001	1.720902031494511E+000
-3.6968848E-001	1.726736375936202E+000
-3.6877441E-001	1.732743491453157E+000
-3.6769348E-001	1.738843614580453E+000
-3.6679521E-001	1.744711013787088E+000
-3.6562523E-001	1.750494375548987E+000
-3.6475232E-001	1.756425303717460E+000
-3.6359200E-001	1.762746165356262E+000
-3.6275068E-001	1.769169256367068E+000
-3.6176956E-001	1.774497667672456E+000
-3.6070338E-001	1.780764373799421E+000
-3.5975054E-001	1.786795454444711E+000
-3.5875419E-001	1.792278088353314E+000
-3.5779411E-001	1.797864737202147E+000
-3.5668659E-001	1.803302288607314E+000
-3.5574180E-001	1.809201346503360E+000
-3.5476252E-001	1.815674935333799E+000
-3.5377070E-001	1.820878805937589E+000
-3.5284859E-001	1.825943170322311E+000
-3.5183731E-001	1.832057251627096E+000
-3.5065371E-001	1.839764619867010E+000
-3.4977353E-001	1.844671435930117E+000
-3.4868529E-001	1.849849686332237E+000
-3.4776366E-001	1.855185947208497E+000
-3.4668180E-001	1.861568048044496E+000
-3.4579170E-001	1.866192193385562E+000
-3.4478536E-001	1.871711815948835E+000
-3.4376568E-001	1.877706920107205E+000
-3.4269124E-001	1.883395411089070E+000
-3.4170911E-001	1.888882724499258E+000
-3.4073225E-001	1.894566795892187E+000
-3.3972597E-001	1.900760817429067E+000
-3.3879489E-001	1.906509425077179E+000
-3.3772725E-001	1.912205008720909E+000
-3.3674368E-001	1.917690662717011E+000
-3.3575404E-001	1.923366029781327E+000
-3.3492613E-001	1.929236604935589E+000
-3.3376786E-001	1.934742307246482E+000
-3.3277071E-001	1.940139367348628E+000
-3.3178112E-001	1.945187232836538E+000
-3.3076254E-001	1.950659811733615E+000
-3.2985139E-001	1.957006601823707E+000
-3.2881346E-001	1.962384526100422E+000
-3.2777452E-001	1.967726012100556E+000
-3.2680908E-001	1.973573521331510E+000
-3.2575756E-001	1.978961452841764E+000
-3.2475501E-001	1.984584453770176E+000
-3.2389167E-001	1.990283091311106E+000
-3.2283974E-001	1.994886073801247E+000
-3.2176563E-001	2.000377169717076E+000
-3.2072398E-001	2.005785449787421E+000
-3.1983432E-001	2.011398500314467E+000
-3.1875861E-001	2.016336233244818E+000
-3.1765047E-001	2.020905935377996E+000
-3.1668231E-001	2.026924451192215E+000
-3.1566638E-001	2.031471299231377E+000
-3.1474498E-001	2.036863325370684E+000
-3.1377447E-001	2.041638645308996E+000
-3.1284705E-001	2.046687643429127E+000
-3.1173339E-001	2.051746367580361E+000
-3.1071556E-001	2.059731560724757E+000
-3.0984887E-001	2.063846401174384E+000
-3.0867326E-001	2.068038667241726E+000
-3.0779162E-001	2.072570406897306E+000
-3.0670875E-001	2.077837654561904E+000
-3.0579552E-001	2.082130624464259E+000
-3.0471841E-001	2.088154618525600E+000
-3.0377290E-001	2.093328635173812E+000
-3.0270907E-001	2.098096908518563E+000
-3.0180830E-001	2.103504684494446E+000
-3.0082518E-001	2.108756816497557E+000
-2.9981926E-001	2.113021565532240E+000
-2.9882240E-001	2.118310736810859E+000
-2.9777497E-001	2.123028715175607E+000
-2.9684228E-001	2.128610650422406E+000
-2.9577696E-001	2.133465996274762E+000
-2.9469892E-001	2.138780768822734E+000
-2.9378444E-001	2.143911104235380E+000
-2.9276031E-001	2.148783984999064E+000
-2.9180190E-001	2.154167375354859E+000
-2.9080150E-001	2.158596336289694E+000
-2.8986603E-001	2.163883173635707E+000
-2.8886497E-001	2.168278414066197E+000
-2.8773519E-001	2.173433728240152E+000
-2.8683379E-001	2.178628707093385E+000
-2.8585300E-001	2.182941753555234E+000
-2.8479403E-001	2.188052894892509E+000
-2.8381947E-001	2.192606500101665E+000
-2.8278503E-001	2.197752397369449E+000
-2.8176382E-001	2.202774308621887E+000
-2.8085518E-001	2.206633361515962E+000
-2.7970767E-001	2.211414090185256E+000
-2.7879405E-001	2.215494171888739E+000
-2.7784488E-001	2.221680678475565E+000
-2.7689189E-001	2.225752664109073E+000
-2.7575001E-001	2.229878131714131E+000
-2.7483317E-001	2.235041124530550E+000
-2.7375111E-001	2.239812929045279E+000
-2.7280399E-001	2.244588439939193E+000
-2.7186936E-001	2.250247181828339E+000
-2.7081573E-001	2.253932254181962E+000
-2.6979604E-001	2.259208138342267E+000
-2.6874417E-001	2.263320273725888E+000
-2.6781413E-001	2.268114367292988E+000
-2.6678190E-001	2.272271840936604E+000
-2.6581019E-001	2.277648435986554E+000
-2.6481423E-001	2.282423005335853E+000
-2.6371944E-001	2.286926974300989E+000
-2.6275724E-001	2.291456886506175E+000
-2.6185209E-001	2.295675705152522E+000
-2.6084638E-001	2.299807313139794E+000
-2.5979555E-001	2.305259385783593E+000
-2.5877240E-001	2.308637789554062E+000
-2.5784495E-001	2.313579157546720E+000
-2.5682610E-001	2.317595487251334E+000
-2.5579178E-001	2.324856541498953E+000
-2.5473815E-001	2.328458363811183E+000
-2.5379997E-001	2.332506665859369E+000
-2.5276810E-001	2.337236414904957E+000
-2.5185281E-001	2.341057580654262E+000
-2.5082549E-001	2.344476256424194E+000
-2.4987999E-001	2.350256458752689E+000
-2.4883887E-001	2.354186460927679E+000
-2.4792589E-001	2.358501477349982E+000
-2.4690683E-001	2.362662252728583E+000
-2.4581522E-001	2.366875616764577E+000
-2.4474162E-001	2.371218147497142E+000
-2.4379449E-001	2.374978591170578E+000
-2.4287541E-001	2.380341986459689E+000
-2.4180770E-001	2.384140241753172E+000
-2.4075705E-001	2.387908889739595E+000
-2.3972446E-001	2.392208147485583E+000
-2.3877639E-001	2.395881702502571E+000
-2.3779064E-001	2.399909277205120E+000
-2.3677462E-001	2.404368922647294E+000
-2.3581110E-001	2.409003901260881E+000
-2.3484737E-001	2.413227955776222E+000
-2.3384747E-001	2.417786622784954E+000
-2.3280948E-001	2.420447065046542E+000
-2.3184429E-001	2.425406920965076E+000
-2.3072514E-001	2.429801685354464E+000
-2.2978939E-001	2.434810943901546E+000
-2.2879075E-001	2.438648381718870E+000
-2.2783287E-001	2.443339632527469E+000
-2.2674136E-001	2.447734823381458E+000
-2.2581503E-001	2.451491141208896E+000
-2.2480980E-001	2.455633898994067E+000
-2.2378725E-001	2.459839515112066E+000
-2.2289295E-001	2.464559061107808E+000
-2.2179517E-001	2.468766409756949E+000
-2.2084402E-001	2.471431570748493E+000
-2.1977170E-001	2.475156286524410E+000
-2.1878475E-001	2.478931457945642E+000
-2.1774758E-001	2.483777265581823E+000
-2.1680534E-001	2.488635136297454E+000
-2.1587117E-001	2.495442405431559E+000
-2.1476294E-001	2.498163429123384E+000
-2.1382619E-001	2.501409572031765E+000
-2.1285698E-001	2.504955039895289E+000
-2.1175753E-001	2.508825837737987E+000
-2.1071194E-001	2.512937940657139E+000
-2.0983689E-001	2.517250108093023E+000
-2.0879795E-001	2.521368914456275E+000
-2.0785289E-001	2.524947909845254E+000
-2.0685360E-001	2.529356554633964E+000
-2.0586972E-001	2.533083142505749E+000
-2.0480929E-001	2.536939435810954E+000
-2.0375447E-001	2.541190322347731E+000
-2.0286708E-001	2.545482896544314E+000
-2.0181893E-001	2.548948579916253E+000
-2.0075974E-001	2.553308258260178E+000
-1.9975705E-001	2.556497062521952E+000
-1.9890177E-001	2.560968427746387E+000
-1.9783919E-001	2.565628270332709E+000
-1.9682693E-001	2.569854232448115E+000
-1.9587363E-001	2.573330915912432E+000
-1.9480939E-001	2.577401865809887E+000
-1.9376677E-001	2.581453127717538E+000
-1.9286163E-001	2.585618040627912E+000
-1.9184342E-001	2.589575061737088E+000
-1.9072403E-001	2.591117117967865E+000
-1.8986575E-001	2.596307454009846E+000
-1.8881837E-001	2.600128658422013E+000
-1.8784398E-001	2.604435181728119E+000
-1.8685779E-001	2.608122064559542E+000
-1.8587561E-001	2.611381357344833E+000
-1.8485318E-001	2.614933170102255E+000
-1.8384537E-001	2.618918375008644E+000
-1.8283987E-001	2.622328231432110E+000
-1.8182868E-001	2.626903236740166E+000
-1.8086605E-001	2.630556027922367E+000
-1.7976341E-001	2.634424705376292E+000
-1.7878400E-001	2.638314310323310E+000
-1.7781508E-001	2.641208469690227E+000
-1.7679977E-001	2.644931385638550E+000
-1.7588869E-001	2.649036223137824E+000
-1.7492023E-001	2.652699728117096E+000
-1.7381494E-001	2.655631480945473E+000
-1.7270274E-001	2.659772598357105E+000
-1.7174980E-001	2.663666440021810E+000
-1.7081459E-001	2.666384171556540E+000
-1.6982460E-001	2.670641838952349E+000
-1.6880268E-001	2.674177212072912E+000
-1.6793454E-001	2.678176895335868E+000
-1.6680601E-001	2.681736672366110E+000
-1.6584983E-001	2.684888291194355E+000
-1.6477323E-001	2.688320888413326E+000
-1.6386932E-001	2.691244894707644E+000
-1.6273485E-001	2.695217787491252E+000
-1.6183122E-001	2.699750201293728E+000
-1.6084503E-001	2.703272067010406E+000
-1.5985678E-001	2.706037357526974E+000
-1.5883747E-001	2.709222097087780E+000
-1.5790114E-001	2.713105457800410E+000
-1.5687361E-001	2.716846883285896E+000
-1.5578261E-001	2.720676584100275E+000
-1.5483801E-001	2.724392130970944E+000
-1.5374145E-001	2.727522086706706E+000
-1.5280667E-001	2.730942487716665E+000
-1.5193336E-001	2.735789032446011E+000
-1.5086260E-001	2.740865018822982E+000
-1.4987019E-001	2.741857812912379E+000
-1.4878389E-001	2.746133259325113E+000
-1.4774591E-001	2.749709818841074E+000
-1.4675829E-001	2.753104741374649E+000
-1.4580393E-001	2.755943375881074E+000
-1.4481924E-001	2.759506640881071E+000
-1.4376837E-001	2.764218490156850E+000
-1.4284794E-001	2.767298665311611E+000
-1.4178242E-001	2.769911222332773E+000
-1.4078690E-001	2.772754953967198E+000
-1.3983276E-001	2.776898128290981E+000
-1.3882697E-001	2.780628859197904E+000
-1.3776238E-001	2.784167855702066E+000
-1.3675754E-001	2.787390365092826E+000
-1.3579322E-001	2.789919248095643E+000
-1.3475166E-001	2.794142957086925E+000
-1.3379624E-001	2.798348024211549E+000
-1.3279085E-001	2.801489580247932E+000
-1.3184510E-001	2.806233683945951E+000
-1.3089433E-001	2.809195700343004E+000
-1.2985055E-001	2.813311647789831E+000
-1.2883289E-001	2.816697983830061E+000
-1.2777607E-001	2.820855951695521E+000
-1.2686777E-001	2.823630941358189E+000
-1.2582131E-001	2.825887281861569E+000
-1.2481987E-001	2.831128515027189E+000
-1.2385119E-001	2.835114619333353E+000
-1.2284707E-001	2.839010380208492E+000
-1.2180509E-001	2.841891375680760E+000
-1.2081535E-001	2.844472983633118E+000
-1.1987136E-001	2.848109684884545E+000
-1.1886438E-001	2.851526672365473E+000
-1.1778083E-001	2.855224970530188E+000
-1.1693975E-001	2.858590505189383E+000
-1.1581122E-001	2.861398718147365E+000
-1.1493069E-001	2.863535835499150E+000
-1.1375699E-001	2.868706029598354E+000
-1.1285982E-001	2.871263159821169E+000
-1.1179862E-001	2.875688904965358E+000
-1.1077680E-001	2.880234952050228E+000
-1.0984489E-001	2.882423873255954E+000
-1.0888378E-001	2.885827901462697E+000
-1.0781890E-001	2.889985164558446E+000
-1.0683965E-001	2.892425647817390E+000
-1.0588559E-001	2.895698939484561E+000
-1.0482749E-001	2.898747350330702E+000
-1.0382622E-001	2.902530736485595E+000
-1.0284792E-001	2.905069232538892E+000
-1.0183182E-001	2.909142506895240E+000
-1.0081504E-001	2.912845097042837E+000
-9.9891059E-002	2.916343722354476E+000
-9.8953262E-002	2.919459180147555E+000
-9.7869419E-002	2.923364018481777E+000
-9.6794844E-002	2.927005204337604E+000
-9.5887162E-002	2.929847491560166E+000
-9.4923154E-002	2.933235056178148E+000
-9.3858592E-002	2.936452371930635E+000
-9.2851192E-002	2.940063791418517E+000
-9.1833368E-002	2.944147938721450E+000
-9.0815194E-002	2.947131242741037E+000
-8.9827746E-002	2.950997840199205E+000
-8.8741772E-002	2.954554860325459E+000
-8.7709010E-002	2.957339074600622E+000
-8.6837605E-002	2.959754843402791E+000
-8.5925765E-002	2.963135985334656E+000
-8.4787592E-002	2.966593100516889E+000
-8.3767265E-002	2.970449397685346E+000
-8.2807221E-002	2.974298007329102E+000
-8.1838168E-002	2.977877497673020E+000
-8.0885299E-002	2.980043013338687E+000
-7.9833128E-002	2.983986523660491E+000
-7.8855030E-002	2.988111628978324E+000
-7.7909783E-002	2.991102355497851E+000
-7.6915212E-002	2.992206086784316E+000
-7.5870611E-002	2.996664364580752E+000
-7.4883789E-002	2.999386715392262E+000
-7.3924452E-002	3.004449646111087E+000
-7.2841212E-002	3.005034715765042E+000
-7.1840614E-002	3.010685913816657E+000
-7.0925288E-002	3.016066153943285E+000
-6.9886491E-002	3.018157900483516E+000
-6.8890348E-002	3.021198201234689E+000
-6.7971520E-002	3.024609362476699E+000
-6.6857308E-002	3.027677555878958E+000
-6.5873891E-002	3.031221019449049E+000
-6.4875625E-002	3.034533412594804E+000
-6.3904084E-002	3.037795931652752E+000
-6.2802501E-002	3.042021058223877E+000
-6.1891470E-002	3.044235806762721E+000
-6.0905661E-002	3.047561914556567E+000
-5.9812345E-002	3.050638541027340E+000
-5.8795653E-002	3.054854510649562E+000
-5.7906389E-002	3.057735215734559E+000
-5.6893688E-002	3.062298491045279E+000
-5.5837449E-002	3.064617960788034E+000
-5.4757778E-002	3.067425109446063E+000
-5.3822082E-002	3.071208354223664E+000
-5.2979060E-002	3.074570820793667E+000
-5.1842511E-002	3.077157342323552E+000
-5.0864812E-002	3.080445257601912E+000
-4.9869936E-002	3.083888843247664E+000
-4.8866786E-002	3.086640436340268E+000
-4.7855362E-002	3.090346694820454E+000
-4.6754632E-002	3.094055880922902E+000
-4.5870699E-002	3.100396821896229E+000
-4.4824455E-002	3.100808178210027E+000
-4.3893885E-002	3.103758013634774E+000
-4.2800147E-002	3.106122491812264E+000
-4.1881606E-002	3.108838721643252E+000
-4.0844124E-002	3.112439255471571E+000
-3.9815515E-002	3.114343467685920E+000
-3.8895056E-002	3.118103654135723E+000
-3.7814520E-002	3.120921258849116E+000
-3.6867794E-002	3.123846070633983E+000
-3.5907231E-002	3.126872242837045E+000
-3.4781102E-002	3.130920983574995E+000
-3.3877440E-002	3.134039122197350E+000
-3.2891981E-002	3.136426444511507E+000
-3.1927351E-002	3.139326467558192E+000
-3.0870743E-002	3.142643321443487E+000
-2.9805591E-002	3.144024213633685E+000
-2.8914714E-002	3.147159382149017E+000
-2.7826928E-002	3.150122045366842E+000
-2.6940465E-002	3.153255993819172E+000
-2.5889779E-002	3.157454538124579E+000
-2.4812810E-002	3.159794377507996E+000
-2.3880582E-002	3.162525914931926E+000
-2.2847021E-002	3.164965927048971E+000
-2.1887148E-002	3.169023640729762E+000
-2.0860262E-002	3.172905297687464E+000
-1.9853905E-002	3.174467692220645E+000
-1.8874936E-002	3.175684220261057E+000
-1.7781008E-002	3.178390483145156E+000
-1.6911699E-002	3.181288072356466E+000
-1.5873546E-002	3.184381440833761E+000
-1.4850288E-002	3.186469390361140E+000
-1.3887822E-002	3.189830204954852E+000
-1.2841822E-002	3.192235000707503E+000
-1.1896800E-002	3.195643004080608E+000
-1.0890884E-002	3.198274301158044E+000
-9.8164594E-003	3.201452866748539E+000
-8.9186039E-003	3.203506245136565E+000
-7.8190686E-003	3.207137487552792E+000
-6.8468880E-003	3.209898817318461E+000
-5.8933161E-003	3.212752408897209E+000
-4.8626484E-003	3.215939400372676E+000
-3.8143143E-003	3.219062123033734E+000
-2.8652132E-003	3.222743672202334E+000
-1.8413175E-003	3.224830716296481E+000
-8.9416828E-004	3.228629417993417E+000
1.5457631E-004	3.230576139290335E+000
1.0658884E-003	3.234925632675484E+000
2.1218583E-003	3.236396462829020E+000
3.0834612E-003	3.242254622354913E+000
4.2115245E-003	3.245430328779754E+000
5.0740349E-003	3.245447973410293E+000
6.1396514E-003	3.248203871460319E+000
6.4645312E-003	3.249427904685341E+000
6.7470851E-003	3.247519105672836E+000