EC-Lab ASCII FILE
Nb header lines : 63                          

Linear Sweep Voltammetry

Run on channel : 6 (SN 13765)
User : 
Electrode connection : standard
Potential control : Ewe
Ewe ctrl range : min = -2.50 V, max = 2.50 V
Ewe,I filtering : <None>
Safety Limits :
	Do not start on E overload
Channel : Floating
Acquisition started on : 07/13/2026 15:22:18.441
Technique started on : 07/13/2026 15:22:19.438
Loaded Setting File :  C:\Users\EEM-620\Desktop\Wade\20260630\LSV 1mg MoS2 1_C06.mpr
Saved on :
	File : N719_0713-a-5_C06.mpr
	Directory : C:\Users\EEM-620\Desktop\Wade\abao\20260713\
	Host : 192.109.209.200
Device : VSP-300 (SN 0025)
Address : 192.109.209.129
EC-LAB for windows v11.62 (software)
Internet server v27.00 (firmware)
Command interpretor v12.02 (firmware)
Electrode material : Au/Pd
Initial state : 
Electrolyte : NaCl (0.2M)
Comments : Fe(CN)63-/Fe(CN)64- 5.10-3 M
Cable : ULC
Reference electrode : SCE Saturated Calomel Electrode (0.241 V)
Electrode surface area : 0.001 cm2
Characteristic mass : 0.001 g
Equivalent Weight : 0.000 g/eq.
Density : 0.000 g/cm3
Volume (V) : 0.001 cm3
Cycle Definition : Charge/Discharge alternance
tR (h:m:s)          0:00:5.0000         
dER/dt (mV/h)       0.0                 
dER (mV)            0                   
dtR (s)             0.0500              
dE/dt               10.000              
dE/dt unit          mV/s                
Ei (V)              -0.800              
vs.                 Ref                 
EL (V)              0.010               
vs.                 Ref                 
record              <I>                 
dI                  0.000               
unit dI             uA                  
tI (s)              0.0000              
step percent        50                  
N                   10                  
E range min (V)     -2.500              
E range max (V)     2.500               
I Range             Auto                
I Range min         Unset               
I Range max         Unset               
I Range init        Unset               
Bandwidth           8                   

Ewe/V	<I>/mA	
-5.7490110E-001	0.000000000000000E+000
-5.7473308E-001	0.000000000000000E+000
-5.7481325E-001	0.000000000000000E+000
-5.7475984E-001	0.000000000000000E+000
-5.7488585E-001	0.000000000000000E+000
-5.7489347E-001	0.000000000000000E+000
-5.7493550E-001	0.000000000000000E+000
-5.7464528E-001	0.000000000000000E+000
-5.7467967E-001	0.000000000000000E+000
-5.7483619E-001	0.000000000000000E+000
-5.7474071E-001	0.000000000000000E+000
-5.7476747E-001	0.000000000000000E+000
-5.7519132E-001	0.000000000000000E+000
-5.7486677E-001	0.000000000000000E+000
-5.7485145E-001	0.000000000000000E+000
-5.7425582E-001	0.000000000000000E+000
-5.7512254E-001	0.000000000000000E+000
-5.7505769E-001	0.000000000000000E+000
-5.7475603E-001	0.000000000000000E+000
-5.7483238E-001	0.000000000000000E+000
-5.7526386E-001	0.000000000000000E+000
-5.7505006E-001	0.000000000000000E+000
-5.7484382E-001	0.000000000000000E+000
-5.7479417E-001	0.000000000000000E+000
-5.7493162E-001	0.000000000000000E+000
-5.7512254E-001	0.000000000000000E+000
-5.7502329E-001	0.000000000000000E+000
-5.7500041E-001	0.000000000000000E+000
-5.7480949E-001	0.000000000000000E+000
-5.7486290E-001	0.000000000000000E+000
-5.7495838E-001	0.000000000000000E+000
-5.7507294E-001	0.000000000000000E+000
-5.7477891E-001	0.000000000000000E+000
-5.7494313E-001	0.000000000000000E+000
-5.7469112E-001	0.000000000000000E+000
-5.7491255E-001	0.000000000000000E+000
-5.7502711E-001	0.000000000000000E+000
-5.7478654E-001	0.000000000000000E+000
-5.7496983E-001	0.000000000000000E+000
-5.7496220E-001	0.000000000000000E+000
-5.7510346E-001	0.000000000000000E+000
-5.7475984E-001	0.000000000000000E+000
-5.7512254E-001	0.000000000000000E+000
-5.7476747E-001	0.000000000000000E+000
-5.7480949E-001	0.000000000000000E+000
-5.7497746E-001	0.000000000000000E+000
-5.7530200E-001	0.000000000000000E+000
-5.7495838E-001	0.000000000000000E+000
-5.7481712E-001	0.000000000000000E+000
-5.7492024E-001	0.000000000000000E+000
-5.7499659E-001	0.000000000000000E+000
-5.7511115E-001	0.000000000000000E+000
-5.7507676E-001	0.000000000000000E+000
-5.7521039E-001	0.000000000000000E+000
-5.7487816E-001	0.000000000000000E+000
-5.7514930E-001	0.000000000000000E+000
-5.7509202E-001	0.000000000000000E+000
-5.7521039E-001	0.000000000000000E+000
-5.7498890E-001	0.000000000000000E+000
-5.7492024E-001	0.000000000000000E+000
-5.7500422E-001	0.000000000000000E+000
-5.8022004E-001	0.000000000000000E+000
-5.8012837E-001	0.000000000000000E+000
-7.8927916E-001	-2.591472351032756E+000
-7.8873765E-001	-2.577722379424507E+000
-7.8762305E-001	-2.555971181227100E+000
-7.8667092E-001	-2.536228686295180E+000
-7.8561437E-001	-2.518490235458081E+000
-7.8476387E-001	-2.502218199824849E+000
-7.8376323E-001	-2.486624917498339E+000
-7.8272766E-001	-2.471087683447095E+000
-7.8172946E-001	-2.456408450448947E+000
-7.8074986E-001	-2.442189196193659E+000
-7.7981430E-001	-2.428225796079683E+000
-7.7871770E-001	-2.414436158758623E+000
-7.7779871E-001	-2.400976711401245E+000
-7.7680945E-001	-2.387212434597863E+000
-7.7578592E-001	-2.374062081729926E+000
-7.7480400E-001	-2.360312651152952E+000
-7.7381527E-001	-2.347283585229187E+000
-7.7279657E-001	-2.334417539338272E+000
-7.7173209E-001	-2.321181766688821E+000
-7.7074468E-001	-2.307955208021450E+000
-7.6976293E-001	-2.295501783490188E+000
-7.6876622E-001	-2.282334963480629E+000
-7.6776868E-001	-2.269205167180168E+000
-7.6676989E-001	-2.255886819903489E+000
-7.6581311E-001	-2.243208812618690E+000
-7.6471567E-001	-2.230359308481505E+000
-7.6382291E-001	-2.217345778312961E+000
-7.6284832E-001	-2.204518765763005E+000
-7.6182938E-001	-2.191467015927547E+000
-7.6077068E-001	-2.178616840530331E+000
-7.5979167E-001	-2.165833908926558E+000
-7.5878924E-001	-2.152974909978319E+000
-7.5780749E-001	-2.140019582653487E+000
-7.5682169E-001	-2.127045875070277E+000
-7.5574750E-001	-2.114122351742502E+000
-7.5480127E-001	-2.101687461413718E+000
-7.5375992E-001	-2.088892058207556E+000
-7.5275564E-001	-2.075916784229115E+000
-7.5178403E-001	-2.063227935521684E+000
-7.5084722E-001	-2.050536690132475E+000
-7.4983996E-001	-2.037787496491713E+000
-7.4881643E-001	-2.024873782915108E+000
-7.4785632E-001	-2.012057534736347E+000
-7.4684459E-001	-1.999219503115718E+000
-7.4581528E-001	-1.986813240029196E+000
-7.4484438E-001	-1.974128077367183E+000
-7.4390841E-001	-1.961492620684485E+000
-7.4277014E-001	-1.948792059664363E+000
-7.4181318E-001	-1.936322526106537E+000
-7.4076235E-001	-1.923522884371096E+000
-7.3986059E-001	-1.910591559553581E+000
-7.3880982E-001	-1.898189993944056E+000
-7.3786300E-001	-1.885682928065456E+000
-7.3676670E-001	-1.872797099804433E+000
-7.3591894E-001	-1.860087691141938E+000
-7.3480988E-001	-1.847553912964138E+000
-7.3384655E-001	-1.835012935653875E+000
-7.3283201E-001	-1.822330907042986E+000
-7.3182440E-001	-1.809656669696167E+000
-7.3080236E-001	-1.797250740781970E+000
-7.2978157E-001	-1.784280386571300E+000
-7.2876906E-001	-1.771782083919753E+000
-7.2775406E-001	-1.759185943338597E+000
-7.2679871E-001	-1.746749850009424E+000
-7.2580659E-001	-1.734362433905957E+000
-7.2479022E-001	-1.722251349025306E+000
-7.2377557E-001	-1.709863530625777E+000
-7.2280961E-001	-1.697105820256251E+000
-7.2189128E-001	-1.684233230297210E+000
-7.2085267E-001	-1.671694151346050E+000
-7.1981061E-001	-1.659468486629159E+000
-7.1883267E-001	-1.647204691613155E+000
-7.1779788E-001	-1.634275224180428E+000
-7.1687812E-001	-1.622118756726930E+000
-7.1581614E-001	-1.609437025255634E+000
-7.1486533E-001	-1.597098948230958E+000
-7.1387661E-001	-1.584839777814008E+000
-7.1289074E-001	-1.572205926257150E+000
-7.1177447E-001	-1.559741217024129E+000
-7.1078968E-001	-1.547404736832334E+000
-7.0983076E-001	-1.535294075255042E+000
-7.0884091E-001	-1.522591392761946E+000
-7.0784038E-001	-1.510375448675070E+000
-7.0683819E-001	-1.498115593498508E+000
-7.0577389E-001	-1.485910097264252E+000
-7.0478880E-001	-1.473597835749395E+000
-7.0381194E-001	-1.461272218299136E+000
-7.0284104E-001	-1.448863212794176E+000
-7.0182765E-001	-1.436475475767146E+000
-7.0075554E-001	-1.424529927748216E+000
-6.9983405E-001	-1.412257084705409E+000
-6.9881487E-001	-1.399820504779058E+000
-6.9776666E-001	-1.387418620564321E+000
-6.9684517E-001	-1.375564123103439E+000
-6.9589555E-001	-1.363218430015779E+000
-6.9482636E-001	-1.351061684113963E+000
-6.9393355E-001	-1.338972471138511E+000
-6.9289899E-001	-1.326498250718469E+000
-6.9188815E-001	-1.314515722018696E+000
-6.9080764E-001	-1.302285463235759E+000
-6.8978643E-001	-1.290535079936192E+000
-6.8875372E-001	-1.277860919898803E+000
-6.8776697E-001	-1.265767424194895E+000
-6.8678397E-001	-1.253618921670650E+000
-6.8585634E-001	-1.241462436686685E+000
-6.8479979E-001	-1.229354763196573E+000
-6.8382841E-001	-1.217188229853356E+000
-6.8277812E-001	-1.204964142121149E+000
-6.8181854E-001	-1.193176617914874E+000
-6.8081445E-001	-1.181187618937753E+000
-6.7978632E-001	-1.169026497227570E+000
-6.7880017E-001	-1.156840584344330E+000
-6.7787087E-001	-1.145122503102931E+000
-6.7684096E-001	-1.132916943984519E+000
-6.7584968E-001	-1.120929140873528E+000
-6.7494714E-001	-1.109250456784615E+000
-6.7382264E-001	-1.097017032856614E+000
-6.7285717E-001	-1.084998230415360E+000
-6.7183661E-001	-1.073121187449605E+000
-6.7088032E-001	-1.061160292621306E+000
-6.6988170E-001	-1.049065927250517E+000
-6.6888976E-001	-1.037006353890453E+000
-6.6783816E-001	-1.025510546814058E+000
-6.6689688E-001	-1.013330791973404E+000
-6.6586143E-001	-1.001592893015454E+000
-6.6475093E-001	-9.895305355307933E-001
-6.6380715E-001	-9.777614039679374E-001
-6.6292816E-001	-9.659221859441880E-001
-6.6182566E-001	-9.539572580360290E-001
-6.6087544E-001	-9.423587686485710E-001
-6.5992969E-001	-9.307288768942712E-001
-6.5880126E-001	-9.184317774756821E-001
-6.5788227E-001	-9.068168730095607E-001
-6.5689558E-001	-8.948737331838492E-001
-6.5585649E-001	-8.832252215442402E-001
-6.5486896E-001	-8.717682578221524E-001
-6.5381789E-001	-8.595002639900748E-001
-6.5290314E-001	-8.478827005476717E-001
-6.5189582E-001	-8.361476214119694E-001
-6.5084261E-001	-8.249552894245666E-001
-6.4982003E-001	-8.126932013367316E-001
-6.4881021E-001	-8.014657806467156E-001
-6.4791465E-001	-7.895902513905844E-001
-6.4685619E-001	-7.779738263120852E-001
-6.4579719E-001	-7.662882706219367E-001
-6.4480847E-001	-7.546178686122105E-001
-6.4389735E-001	-7.427678419116752E-001
-6.4284515E-001	-7.311834268685864E-001
-6.4182717E-001	-7.197415023628189E-001
-6.4082640E-001	-7.085568912158703E-001
-6.3986313E-001	-6.966043442349701E-001
-6.3887435E-001	-6.855151519455269E-001
-6.3784611E-001	-6.735835191583766E-001
-6.3688511E-001	-6.620087190358728E-001
-6.3581508E-001	-6.506067363338328E-001
-6.3482869E-001	-6.390176458204713E-001
-6.3388431E-001	-6.276568228171939E-001
-6.3282812E-001	-6.164102403240062E-001
-6.3183558E-001	-6.049236153430337E-001
-6.3085407E-001	-5.935612981104184E-001
-6.2991410E-001	-5.818109676517800E-001
-6.2886965E-001	-5.704245588437764E-001
-6.2783504E-001	-5.591455717329634E-001
-6.2689918E-001	-5.478978134277785E-001
-6.2592059E-001	-5.365771169289841E-001
-6.2487525E-001	-5.251409218957033E-001
-6.2380201E-001	-5.137979804629964E-001
-6.2286109E-001	-5.025967803128335E-001
-6.2181324E-001	-4.912108403665050E-001
-6.2084532E-001	-4.796888338335350E-001
-6.1985207E-001	-4.683576001337277E-001
-6.1886013E-001	-4.572969652988295E-001
-6.1781549E-001	-4.452556155788558E-001
-6.1653119E-001	-4.327793340716095E-001
-6.1559147E-001	-4.215347329499561E-001
-6.1460221E-001	-4.103297603584962E-001
-6.1354196E-001	-3.991408279096640E-001
-6.1268616E-001	-3.880094685764224E-001
-6.1149555E-001	-3.771377836821310E-001
-6.1058277E-001	-3.657577373432339E-001
-6.0955310E-001	-3.548270968582354E-001
-6.0876781E-001	-3.440156222133601E-001
-6.0770565E-001	-3.327380492248473E-001
-6.0652602E-001	-3.214997331163405E-001
-6.0557896E-001	-3.105526001578218E-001
-6.0455054E-001	-2.995528183463554E-001
-6.0347140E-001	-2.887013214122920E-001
-6.0258430E-001	-2.777071059427612E-001
-6.0169441E-001	-2.669967373626090E-001
-6.0058671E-001	-2.560888014871772E-001
-5.9963804E-001	-2.449473671123985E-001
-5.9866506E-001	-2.340427532930072E-001
-5.9762329E-001	-2.233045588902858E-001
-5.9657866E-001	-2.121532056644178E-001
-5.9555441E-001	-2.015130957588553E-001
-5.9457010E-001	-1.906338210942018E-001
-5.9360677E-001	-1.796805959423731E-001
-5.9267455E-001	-1.688110975341663E-001
-5.9149975E-001	-1.583391250870008E-001
-5.9051794E-001	-1.475405089127236E-001
-5.8953977E-001	-1.364942218211518E-001
-5.8865023E-001	-1.257535064144544E-001
-5.8755183E-001	-1.149202324603327E-001
-5.8655298E-001	-1.043507610792638E-001
-5.8555090E-001	-9.368235725668017E-002
-5.8455622E-001	-8.301105184462521E-002
-5.8349878E-001	-7.236378020779399E-002
-5.8259761E-001	-6.157734195908732E-002
-5.8155167E-001	-5.131026419687967E-002
-5.8055013E-001	-3.916608200889157E-002
-5.7925069E-001	-2.708415990879298E-002
-5.7830793E-001	-1.641416140288732E-002
-5.7726687E-001	-6.048842109858343E-003
-5.7626194E-001	4.698209091735184E-003
-5.7526785E-001	1.509556341248010E-002
-5.7426512E-001	2.568921180122918E-002
-5.7315028E-001	3.592171560226987E-002
-5.7233936E-001	4.654709397625467E-002
-5.7125586E-001	5.687190078336890E-002
-5.7011902E-001	6.737341970026889E-002
-5.6928915E-001	7.743462026809111E-002
-5.6824398E-001	8.795684559650181E-002
-5.6719637E-001	9.848305102938104E-002
-5.6614542E-001	1.101946101319325E-001
-5.6488198E-001	1.216426615568771E-001
-5.6401896E-001	1.317652755872568E-001
-5.6290478E-001	1.418525267357901E-001
-5.6191206E-001	1.521775387917410E-001
-5.6085676E-001	1.618779188572412E-001
-5.5996919E-001	1.725762618567659E-001
-5.5906212E-001	1.824262799971077E-001
-5.5791682E-001	1.923464433321556E-001
-5.5693358E-001	2.021888977399582E-001
-5.5590010E-001	2.125080600380880E-001
-5.5484438E-001	2.226253599933259E-001
-5.5406928E-001	2.324753461267668E-001
-5.5295092E-001	2.425211295485497E-001
-5.5189198E-001	2.524469396108433E-001
-5.5097497E-001	2.625187854455024E-001
-5.4998243E-001	2.722244256475671E-001
-5.4898506E-001	2.821307197144179E-001
-5.4786986E-001	2.918551558007796E-001
-5.4691535E-001	3.016111772782306E-001
-5.4593205E-001	3.114917970572906E-001
-5.4503924E-001	3.210228618786291E-001
-5.4381013E-001	3.308223552725553E-001
-5.4308277E-001	3.407638162995399E-001
-5.4216743E-001	3.503525736914188E-001
-5.4092652E-001	3.598445406843926E-001
-5.4004383E-001	3.691845659718460E-001
-5.3895539E-001	3.788577205398012E-001
-5.3777188E-001	3.886112724056137E-001
-5.3700471E-001	3.981412536016222E-001
-5.3599387E-001	4.074899179653970E-001
-5.3494948E-001	4.170009771567613E-001
-5.3398144E-001	4.260360860024333E-001
-5.3294432E-001	4.351328414761362E-001
-5.3209060E-001	4.453657004560903E-001
-5.3098220E-001	4.547253446308570E-001
-5.2993196E-001	4.641381373146061E-001
-5.2900326E-001	4.735306758214262E-001
-5.2793473E-001	4.828562010769479E-001
-5.2691185E-001	4.920991339065417E-001
-5.2583164E-001	5.013381129640617E-001
-5.2501225E-001	5.106021622540773E-001
-5.2391344E-001	5.199097871642415E-001
-5.2290481E-001	5.292356662672999E-001
-5.2204609E-001	5.381345562636835E-001
-5.2094257E-001	5.471546822400004E-001
-5.1995665E-001	5.564295684047056E-001
-5.1894903E-001	5.655372192462313E-001
-5.1797324E-001	5.744122428198661E-001
-5.1694888E-001	5.833786607206131E-001
-5.1598817E-001	5.921965853345650E-001
-5.1500005E-001	6.011794103240540E-001
-5.1399755E-001	6.103082239160833E-001
-5.1290959E-001	6.192374697162055E-001
-5.1198423E-001	6.279856397045975E-001
-5.1095939E-001	6.366195168888122E-001
-5.0997603E-001	6.454864299545680E-001
-5.0897670E-001	6.543696062570374E-001
-5.0796902E-001	6.629809076199447E-001
-5.0704294E-001	6.715616094017456E-001
-5.0597340E-001	6.803947228386438E-001
-5.0484222E-001	6.891624419526838E-001
-5.0386572E-001	6.976972497585763E-001
-5.0284898E-001	7.063959723131514E-001
-5.0188535E-001	7.142327797110450E-001
-5.0096959E-001	7.231879835879369E-001
-4.9982145E-001	7.313594410402917E-001
-4.9892011E-001	7.401834544500154E-001
-4.9802536E-001	7.483405248710397E-001
-4.9689308E-001	7.566794488855013E-001
-4.9587616E-001	7.649842199932664E-001
-4.9481761E-001	7.736048450072630E-001
-4.9393240E-001	7.818709076554677E-001
-4.9288750E-001	7.899064080138807E-001
-4.9185500E-001	7.984553372694378E-001
-4.9090558E-001	8.060302250087279E-001
-4.9002266E-001	8.139353881075655E-001
-4.8885658E-001	8.223504643473305E-001
-4.8797721E-001	8.309624490473144E-001
-4.8691481E-001	8.384031158078606E-001
-4.8587304E-001	8.463627948529222E-001
-4.8486015E-001	8.543598753540547E-001
-4.8381728E-001	8.618966828065888E-001
-4.8285896E-001	8.706073482279422E-001
-4.8197904E-001	8.782987773443907E-001
-4.8084736E-001	8.860247024783368E-001
-4.7998673E-001	8.930554995658212E-001
-4.7895303E-001	9.015025323399506E-001
-4.7795814E-001	9.092827117829447E-001
-4.7699952E-001	9.169163993663290E-001
-4.7605726E-001	9.241010661241065E-001
-4.7488105E-001	9.321544458744722E-001
-4.7388208E-001	9.397540304947771E-001
-4.7295341E-001	9.469493383300680E-001
-4.7189277E-001	9.548169254428815E-001
-4.7092715E-001	9.622385213496543E-001
-4.6990329E-001	9.695844470294031E-001
-4.6896479E-001	9.768112214903040E-001
-4.6789038E-001	9.841912176322083E-001
-4.6693283E-001	9.918239347524658E-001
-4.6582487E-001	9.986447560842358E-001
-4.6493015E-001	1.006213530346198E+000
-4.6390566E-001	1.013326963343225E+000
-4.6292490E-001	1.020684856645490E+000
-4.6184561E-001	1.027681269579464E+000
-4.6096092E-001	1.035031695744832E+000
-4.5998630E-001	1.042158743435586E+000
-4.5914882E-001	1.048912081591514E+000
-4.5791212E-001	1.055696940161896E+000
-4.5684680E-001	1.062881787342054E+000
-4.5583981E-001	1.069886301540667E+000
-4.5483229E-001	1.076517101688562E+000
-4.5391938E-001	1.083376368024833E+000
-4.5302951E-001	1.090063067636001E+000
-4.5175886E-001	1.097799651385139E+000
-4.5079380E-001	1.105719709837880E+000
-4.4969746E-001	1.112989440836293E+000
-4.4864234E-001	1.120046045679162E+000
-4.4766232E-001	1.126120721576388E+000
-4.4675568E-001	1.132773433432536E+000
-4.4569591E-001	1.139386556592685E+000
-4.4472900E-001	1.146208777057906E+000
-4.4376275E-001	1.152421391120665E+000
-4.4268787E-001	1.159388154931065E+000
-4.4172677E-001	1.165521837632966E+000
-4.4078168E-001	1.171773328080940E+000
-4.3974593E-001	1.177991502952797E+000
-4.3876228E-001	1.184885276412530E+000
-4.3766800E-001	1.190790286615510E+000
-4.3671376E-001	1.196951151032136E+000
-4.3570319E-001	1.203478945764129E+000
-4.3465602E-001	1.209284032321545E+000
-4.3374610E-001	1.215965587645769E+000
-4.3274614E-001	1.221715923398736E+000
-4.3172902E-001	1.227900661529787E+000
-4.3074599E-001	1.234127059027007E+000
-4.2962217E-001	1.240340556673427E+000
-4.2867109E-001	1.246783167843578E+000
-4.2774421E-001	1.251909222039917E+000
-4.2668337E-001	1.258215671060265E+000
-4.2567027E-001	1.264140020084006E+000
-4.2470378E-001	1.270528708343150E+000
-4.2357332E-001	1.275935306869173E+000
-4.2271891E-001	1.281411422416149E+000
-4.2172253E-001	1.287461408448439E+000
-4.2070046E-001	1.293455353903553E+000
-4.1965297E-001	1.298484201951653E+000
-4.1871372E-001	1.304642351827141E+000
-4.1778544E-001	1.310281536369411E+000
-4.1672820E-001	1.316109887716660E+000
-4.1574839E-001	1.321496766060591E+000
-4.1472274E-001	1.326358438090046E+000
-4.1371277E-001	1.332450359906066E+000
-4.1270015E-001	1.337473365719665E+000
-4.1175655E-001	1.342940457027267E+000
-4.1075218E-001	1.349147553275044E+000
-4.0977740E-001	1.353897707605809E+000
-4.0869597E-001	1.359697091634622E+000
-4.0764672E-001	1.364896899435822E+000
-4.0669328E-001	1.370855920844616E+000
-4.0567294E-001	1.375810290376347E+000
-4.0473285E-001	1.380714092742139E+000
-4.0371799E-001	1.386242062267332E+000
-4.0266326E-001	1.389771761717618E+000
-4.0169197E-001	1.396408564855679E+000
-4.0071958E-001	1.401312951964364E+000
-3.9976838E-001	1.406833589766869E+000
-3.9872867E-001	1.411752142268714E+000
-3.9770040E-001	1.416432857651399E+000
-3.9668280E-001	1.421570773891831E+000
-3.9568895E-001	1.427163083793239E+000
-3.9470154E-001	1.430996419930905E+000
-3.9371723E-001	1.436384612073500E+000
-3.9272037E-001	1.440929338840050E+000
-3.9172581E-001	1.446227629841481E+000
-3.9073730E-001	1.450881860046474E+000
-3.8971135E-001	1.455840055196575E+000
-3.8874495E-001	1.460483165526831E+000
-3.8764849E-001	1.464938005087554E+000
-3.8675421E-001	1.469933438996001E+000
-3.8580149E-001	1.475053936519004E+000
-3.8479090E-001	1.479716438662122E+000
-3.8376221E-001	1.484015750518889E+000
-3.8265353E-001	1.489194234212238E+000
-3.8174137E-001	1.493883298503032E+000
-3.8073358E-001	1.497904957828698E+000
-3.7966403E-001	1.502698058745375E+000
-3.7865043E-001	1.507066292895214E+000
-3.7769911E-001	1.511835154967791E+000
-3.7677377E-001	1.516325095047554E+000
-3.7564337E-001	1.521211383933270E+000
-3.7467074E-001	1.524988609097676E+000
-3.7376773E-001	1.529219822061286E+000
-3.7268403E-001	1.533862689199218E+000
-3.7170884E-001	1.538471981331142E+000
-3.7076080E-001	1.543313962165952E+000
-3.6974847E-001	1.547583893065081E+000
-3.6867937E-001	1.551052035970827E+000
-3.6767200E-001	1.556076779547664E+000
-3.6666080E-001	1.560561241632954E+000
-3.6575714E-001	1.565313733562270E+000
-3.6469394E-001	1.568267162199369E+000
-3.6375189E-001	1.573285550749159E+000
-3.6274558E-001	1.577690436884208E+000
-3.6170232E-001	1.580492402392409E+000
-3.6069056E-001	1.585778636846378E+000
-3.5970902E-001	1.589850361148514E+000
-3.5871962E-001	1.594006041133847E+000
-3.5778406E-001	1.598292234660616E+000
-3.5665518E-001	1.601676146741269E+000
-3.5575300E-001	1.605761579065412E+000
-3.5480317E-001	1.610219081891955E+000
-3.5368943E-001	1.614429065474763E+000
-3.5281399E-001	1.617222241781381E+000
-3.5172513E-001	1.622637666570203E+000
-3.5074088E-001	1.627179121253668E+000
-3.4965032E-001	1.630163911040180E+000
-3.4873334E-001	1.633612233670078E+000
-3.4779653E-001	1.638876036637363E+000
-3.4669280E-001	1.642211873498233E+000
-3.4577161E-001	1.646047613961219E+000
-3.4473065E-001	1.650328085930255E+000
-3.4379750E-001	1.653329891463120E+000
-3.4271649E-001	1.657760089262894E+000
-3.4170932E-001	1.661426033410759E+000
-3.4072337E-001	1.665405607333895E+000
-3.3969805E-001	1.669324941563282E+000
-3.3874485E-001	1.673577393646593E+000
-3.3773300E-001	1.676993212214221E+000
-3.3672655E-001	1.680290893952240E+000
-3.3572263E-001	1.683410432327680E+000
-3.3473966E-001	1.686218685022105E+000
-3.3376566E-001	1.690725711783916E+000
-3.3264533E-001	1.694744775416673E+000
-3.3177453E-001	1.699471121584923E+000
-3.3070332E-001	1.702843356409698E+000
-3.2979411E-001	1.706677927463150E+000
-3.2872057E-001	1.710292521726203E+000
-3.2776538E-001	1.714344512205769E+000
-3.2683647E-001	1.717709911366308E+000
-3.2574439E-001	1.720681441878834E+000
-3.2472223E-001	1.725419604383124E+000
-3.2373241E-001	1.728252831708495E+000
-3.2274175E-001	1.731468848884109E+000
-3.2173455E-001	1.735995613559918E+000
-3.2072887E-001	1.738852433308402E+000
-3.1974715E-001	1.742605140915625E+000
-3.1872192E-001	1.746153899013564E+000
-3.1779748E-001	1.749908086878283E+000
-3.1669143E-001	1.753939759676107E+000
-3.1572706E-001	1.756639084866180E+000
-3.1480327E-001	1.759895609208819E+000
-3.1374183E-001	1.763575429717707E+000
-3.1274313E-001	1.767033977305061E+000
-3.1169307E-001	1.770736049446789E+000
-3.1077883E-001	1.773649480607780E+000
-3.0973750E-001	1.777388481246298E+000
-3.0881491E-001	1.781643481442229E+000
-3.0776829E-001	1.784104265187004E+000
-3.0679420E-001	1.787844260809599E+000
-3.0587572E-001	1.790560170456214E+000
-3.0475298E-001	1.794156137654852E+000
-3.0376992E-001	1.798395075731811E+000
-3.0278671E-001	1.800996088043405E+000
-3.0175492E-001	1.804470025687387E+000
-3.0071273E-001	1.808020359664051E+000
-2.9977113E-001	1.810834095433904E+000
-2.9872444E-001	1.814306512620758E+000
-2.9780871E-001	1.818449638783934E+000
-2.9674193E-001	1.821355354454786E+000
-2.9576814E-001	1.824803289071596E+000
-2.9477680E-001	1.827475503638958E+000
-2.9372653E-001	1.831592813686086E+000
-2.9278710E-001	1.834700070140467E+000
-2.9175246E-001	1.836792832171480E+000
-2.9077542E-001	1.841149553932528E+000
-2.8976423E-001	1.844555065500682E+000
-2.8870147E-001	1.847684801176733E+000
-2.8777811E-001	1.849850465302104E+000
-2.8675082E-001	1.853400728942482E+000
-2.8579298E-001	1.856444284871770E+000
-2.8480148E-001	1.859643893385368E+000
-2.8373477E-001	1.863109130634669E+000
-2.8275019E-001	1.867132107416793E+000
-2.8176168E-001	1.869353641514427E+000
-2.8076759E-001	1.872146796361164E+000
-2.7979675E-001	1.875059070962447E+000
-2.7872744E-001	1.878025646011035E+000
-2.7778661E-001	1.882398413131511E+000
-2.7673665E-001	1.885847045039700E+000
-2.7577165E-001	1.888427630894714E+000
-2.7481371E-001	1.891947560454597E+000
-2.7379972E-001	1.894884326667686E+000
-2.7278939E-001	1.898315846644067E+000
-2.7179521E-001	1.901015588504759E+000
-2.7074489E-001	1.904139692308728E+000
-2.6979473E-001	1.907208145216657E+000
-2.6876178E-001	1.909050551715652E+000
-2.6778674E-001	1.910670928105155E+000
-2.6685297E-001	1.914569918756129E+000
-2.6583087E-001	1.918253604261231E+000
-2.6478153E-001	1.921684851249061E+000
-2.6376352E-001	1.924582943320273E+000
-2.6277238E-001	1.927566718689732E+000
-2.6175323E-001	1.931486308574669E+000
-2.6080057E-001	1.933937220385781E+000
-2.5973129E-001	1.937325875007925E+000
-2.5879022E-001	1.940289168170212E+000
-2.5773656E-001	1.943524629705479E+000
-2.5668707E-001	1.945677212389366E+000
-2.5577864E-001	1.948862711036639E+000
-2.5475875E-001	1.952436035429987E+000
-2.5372300E-001	1.955116769094795E+000
-2.5281075E-001	1.958013082544017E+000
-2.5177133E-001	1.961514292767745E+000
-2.5078386E-001	1.964135992872984E+000
-2.4979582E-001	1.967288982261107E+000
-2.4873091E-001	1.970656883385457E+000
-2.4777806E-001	1.973545884260613E+000
-2.4678275E-001	1.976147218434907E+000
-2.4567626E-001	1.978559942709076E+000
-2.4479510E-001	1.982103528955811E+000
-2.4369669E-001	1.984727148104598E+000
-2.4276629E-001	1.987837632633514E+000
-2.4173833E-001	1.991071724781293E+000
-2.4075748E-001	1.994523125390209E+000
-2.3980141E-001	1.996189759458083E+000
-2.3875582E-001	1.999875093223883E+000
-2.3782162E-001	2.002093386318947E+000
-2.3677048E-001	2.006123569350994E+000
-2.3574872E-001	2.007868826113373E+000
-2.3488088E-001	2.010380676499118E+000
-2.3375729E-001	2.013825105519729E+000
-2.3275518E-001	2.016016940827726E+000
-2.3177624E-001	2.019816146956549E+000
-2.3074986E-001	2.022535810615432E+000
-2.2979665E-001	2.025066313644246E+000
-2.2879176E-001	2.028345866611719E+000
-2.2778340E-001	2.030505629572078E+000
-2.2677679E-001	2.033313098880981E+000
-2.2577044E-001	2.036570817232136E+000
-2.2478564E-001	2.039478800869798E+000
-2.2385727E-001	2.041602295030032E+000
-2.2273256E-001	2.045018949718386E+000
-2.2175683E-001	2.047586729582729E+000
-2.2074156E-001	2.050333246312757E+000
-2.1981561E-001	2.053789776508452E+000
-2.1881442E-001	2.056600150211139E+000
-2.1774058E-001	2.059703053423654E+000
-2.1677284E-001	2.062364507052642E+000
-2.1582116E-001	2.064356532000396E+000
-2.1475723E-001	2.067530080676072E+000
-2.1382155E-001	2.070190418649593E+000
-2.1274325E-001	2.073486362838107E+000
-2.1183854E-001	2.075038446872324E+000
-2.1078195E-001	2.078648571338920E+000
-2.0977680E-001	2.081405557868806E+000
-2.0888340E-001	2.084077111548845E+000
-2.0778461E-001	2.086317704231647E+000
-2.0680106E-001	2.089341413166822E+000
-2.0577785E-001	2.092052753048922E+000
-2.0479168E-001	2.094772149291305E+000
-2.0387433E-001	2.097309868099419E+000
-2.0278306E-001	2.100161605411117E+000
-2.0178370E-001	2.102416953278912E+000
-2.0083471E-001	2.105313494817882E+000
-1.9981922E-001	2.108614976759309E+000
-1.9879231E-001	2.111409400348315E+000
-1.9784452E-001	2.113441483465232E+000
-1.9673955E-001	2.115651913815078E+000
-1.9578816E-001	2.118748172565756E+000
-1.9480631E-001	2.121241867482624E+000
-1.9385524E-001	2.125027134462638E+000
-1.9281498E-001	2.126500830330231E+000
-1.9181560E-001	2.129809418003884E+000
-1.9082224E-001	2.132315151669363E+000
-1.8985960E-001	2.135103245852175E+000
-1.8882659E-001	2.137305249303457E+000
-1.8784250E-001	2.139762361292483E+000
-1.8684040E-001	2.143161795481484E+000
-1.8581916E-001	2.144875531584306E+000
-1.8482943E-001	2.148073607296844E+000
-1.8379998E-001	2.149849180822022E+000
-1.8283607E-001	2.152840546987676E+000
-1.8178709E-001	2.154695741004419E+000
-1.8082172E-001	2.158558823720172E+000
-1.7972480E-001	2.161086298705293E+000
-1.7880310E-001	2.163366064981180E+000
-1.7777254E-001	2.165734027877166E+000
-1.7684773E-001	2.167939250943832E+000
-1.7576268E-001	2.170528149991126E+000
-1.7489727E-001	2.173387760671081E+000
-1.7375851E-001	2.175517161963157E+000
-1.7278865E-001	2.178308501563697E+000
-1.7184448E-001	2.180756617314742E+000
-1.7076091E-001	2.183012515030532E+000
-1.6984327E-001	2.186596605236883E+000
-1.6883618E-001	2.187480005488101E+000
-1.6784395E-001	2.190596186176492E+000
-1.6678564E-001	2.193182542368227E+000
-1.6577414E-001	2.195955742728559E+000
-1.6481543E-001	2.199087094101642E+000
-1.6380379E-001	2.200794291992985E+000
-1.6285783E-001	2.204269382027553E+000
-1.6175464E-001	2.207470248970722E+000
-1.6081832E-001	2.209414409818464E+000
-1.5974833E-001	2.212664542774853E+000
-1.5876937E-001	2.214477047600139E+000
-1.5780906E-001	2.217023906884375E+000
-1.5675123E-001	2.220295867114938E+000
-1.5590267E-001	2.222323150270521E+000
-1.5472770E-001	2.224515872421090E+000
-1.5383638E-001	2.227301517865520E+000
-1.5286227E-001	2.229626398395601E+000
-1.5182559E-001	2.231627693882695E+000
-1.5084364E-001	2.236181419379434E+000
-1.4980614E-001	2.236966643344470E+000
-1.4892495E-001	2.239332153289400E+000
-1.4778440E-001	2.242402374697761E+000
-1.4685035E-001	2.244256936289645E+000
-1.4583682E-001	2.247106841316931E+000
-1.4482272E-001	2.249854617908543E+000
-1.4383517E-001	2.253443211868959E+000
-1.4280170E-001	2.254773577330294E+000
-1.4173310E-001	2.258186349548994E+000
-1.4085563E-001	2.259977385953622E+000
-1.3986649E-001	2.262656884888806E+000
-1.3885246E-001	2.265176085834415E+000
-1.3781139E-001	2.266777008771889E+000
-1.3679764E-001	2.270244596457046E+000
-1.3583882E-001	2.272483526513234E+000
-1.3483037E-001	2.274990064954325E+000
-1.3382021E-001	2.277769115236072E+000
-1.3280220E-001	2.279188075872035E+000
-1.3181010E-001	2.281032146127139E+000
-1.3080099E-001	2.284694925502500E+000
-1.2988456E-001	2.286808934827594E+000
-1.2880404E-001	2.288756370268481E+000
-1.2774830E-001	2.290659254347844E+000
-1.2682788E-001	2.293699982854109E+000
-1.2574050E-001	2.295344305259203E+000
-1.2489453E-001	2.298582573455791E+000
-1.2379273E-001	2.299975124545579E+000
-1.2277178E-001	2.302919425898132E+000
-1.2181146E-001	2.305478094904517E+000
-1.2078627E-001	2.306064107583826E+000
-1.1982130E-001	2.308639367145531E+000
-1.1877953E-001	2.311885120140190E+000
-1.1781392E-001	2.314053278938294E+000
-1.1678553E-001	2.315749858540512E+000
-1.1577071E-001	2.318811685398781E+000
-1.1483628E-001	2.320645407478104E+000
-1.1383591E-001	2.321972863265772E+000
-1.1281469E-001	2.325249116671657E+000
-1.1187965E-001	2.327795293872013E+000
-1.1083430E-001	2.329015777894750E+000
-1.0984819E-001	2.331677843696532E+000
-1.0887934E-001	2.334327530805723E+000
-1.0780511E-001	2.336083473706687E+000
-1.0681935E-001	2.337601455454880E+000
-1.0582895E-001	2.340592432905130E+000
-1.0483448E-001	2.342587396502488E+000
-1.0378747E-001	2.344561498343900E+000
-1.0281759E-001	2.346667004680192E+000
-1.0181168E-001	2.349725993971035E+000
-1.0076510E-001	2.351305053506714E+000
-9.9804096E-002	2.353600091956274E+000
-9.8810077E-002	2.355764601793556E+000
-9.7829126E-002	2.357208515204574E+000
-9.6738003E-002	2.359594098947666E+000
-9.5811844E-002	2.362341378574010E+000
-9.4896309E-002	2.363103154138019E+000
-9.3802169E-002	2.366725043014242E+000
-9.2752337E-002	2.369574818070287E+000
-9.1821671E-002	2.371013004115746E+000
-9.0894535E-002	2.373139193488498E+000
-8.9831978E-002	2.375553049974954E+000
-8.8813335E-002	2.377702045718571E+000
-8.7793015E-002	2.379439197756632E+000
-8.6847998E-002	2.381838535545050E+000
-8.5754506E-002	2.383265944748189E+000
-8.4736250E-002	2.385397171256720E+000
-8.3841085E-002	2.387711080963978E+000
-8.2817227E-002	2.390457922603765E+000
-8.1824593E-002	2.392209951248432E+000
-8.0877870E-002	2.394120884990251E+000
-7.9886995E-002	2.396136812172880E+000
-7.8740701E-002	2.397413249093078E+000
-7.7824503E-002	2.400616175322620E+000
-7.6813430E-002	2.402620835648506E+000
-7.5825006E-002	2.404331285644453E+000
-7.4846670E-002	2.406498231545648E+000
-7.3851429E-002	2.408643220261007E+000
-7.2773337E-002	2.410944657745183E+000
-7.1778670E-002	2.412960962012967E+000
-7.0890106E-002	2.415238062451245E+000
-6.9855310E-002	2.417284973241662E+000
-6.8835191E-002	2.418797942499324E+000
-6.7838073E-002	2.420568739287898E+000
-6.6832066E-002	2.423093763490517E+000
-6.5818526E-002	2.425251279716147E+000
-6.4783603E-002	2.426343028272711E+000
-6.3801832E-002	2.429059785273342E+000
-6.2750742E-002	2.430638853598531E+000
-6.1839391E-002	2.433626119055941E+000
-6.0916692E-002	2.434950828828200E+000
-5.9863251E-002	2.438014038459025E+000
-5.8787666E-002	2.439078882352966E+000
-5.7832565E-002	2.440232234420598E+000
-5.6824539E-002	2.443386252279623E+000
-5.5973768E-002	2.444419813269253E+000
-5.4858755E-002	2.447086499796974E+000
-5.3813592E-002	2.447775568951059E+000
-5.2926000E-002	2.450979771326949E+000
-5.1817264E-002	2.452726799856730E+000
-5.0863542E-002	2.454541201116867E+000
-4.9842998E-002	2.456930402336391E+000
-4.8843030E-002	2.459277380395823E+000
-4.7874667E-002	2.461562475396526E+000
-4.6814874E-002	2.462455006985181E+000
-4.5832302E-002	2.465115755520486E+000
-4.4857584E-002	2.465777559663124E+000
-4.3852307E-002	2.467892888519501E+000
-4.2864427E-002	2.471723020628648E+000
-4.1917901E-002	2.472900170626405E+000
-4.0857486E-002	2.474247176614064E+000
-3.9867491E-002	2.475899622396184E+000
-3.8917210E-002	2.478495355798056E+000
-3.7855461E-002	2.480097526753386E+000
-3.6819857E-002	2.480207955947645E+000
-3.5877910E-002	2.482193292631663E+000
-3.4848135E-002	2.485010925818379E+000
-3.3840738E-002	2.487151211886498E+000
-3.2870829E-002	2.489309610098829E+000
-3.1810682E-002	2.490780867636207E+000
-3.0892594E-002	2.492294498063906E+000
-2.9845748E-002	2.493639299458380E+000
-2.8837504E-002	2.495344330039288E+000
-2.7881233E-002	2.497925538983614E+000
-2.6933746E-002	2.500625692773291E+000
-2.5872171E-002	2.501172148243143E+000
-2.4864357E-002	2.504193246640533E+000
-2.3941703E-002	2.506159620799345E+000
-2.2883508E-002	2.507753342114114E+000
-2.1893933E-002	2.509489838171895E+000
-2.0858748E-002	2.511075810030363E+000
-1.9877451E-002	2.512658351549401E+000
-1.8814268E-002	2.515224624011232E+000
-1.7881351E-002	2.515552218581256E+000
-1.6879454E-002	2.518647171281001E+000
-1.5880972E-002	2.520051476028218E+000
-1.4854171E-002	2.521995496354613E+000
-1.3861943E-002	2.523302552876638E+000
-1.2907157E-002	2.526140370854613E+000
-1.1782128E-002	2.527677132737168E+000
-1.0811550E-002	2.529701641588304E+000
-9.8894313E-003	2.530770129903601E+000
-8.8394862E-003	2.532919579918165E+000
-7.7961581E-003	2.534170311358238E+000
-6.8806168E-003	2.536246758920180E+000
-5.8348249E-003	2.537750050350013E+000
-4.9025286E-003	2.539806645501550E+000
-3.8378609E-003	2.541351991947046E+000
-2.8732114E-003	2.543370414357767E+000
-1.9439873E-003	2.545348158865066E+000
-8.4050011E-004	2.547213237870622E+000
1.5561380E-004	2.548619746621243E+000
1.1982559E-003	2.549922262352919E+000
2.0734931E-003	2.552052017163351E+000
3.1550562E-003	2.553175439657032E+000
4.1737659E-003	2.554825815061736E+000
5.1654610E-003	2.556685142219060E+000
6.1746067E-003	2.558089444691724E+000
6.8730884E-003	2.558175255854920E+000
6.8501788E-003	2.559148013591766E+000