EC-Lab ASCII FILE
Nb header lines : 63                          

Linear Sweep Voltammetry

Run on channel : 6 (SN 13765)
User : 
Electrode connection : standard
Potential control : Ewe
Ewe ctrl range : min = -2.50 V, max = 2.50 V
Ewe,I filtering : <None>
Safety Limits :
	Do not start on E overload
Channel : Floating
Acquisition started on : 07/13/2026 15:46:26.095
Technique started on : 07/13/2026 15:46:27.092
Loaded Setting File :  C:\Users\EEM-620\Desktop\Wade\20260630\LSV 1mg MoS2 1_C06.mpr
Saved on :
	File : N719_0713-c-1_C06.mpr
	Directory : C:\Users\EEM-620\Desktop\Wade\abao\20260713\
	Host : 192.109.209.200
Device : VSP-300 (SN 0025)
Address : 192.109.209.129
EC-LAB for windows v11.62 (software)
Internet server v27.00 (firmware)
Command interpretor v12.02 (firmware)
Electrode material : Au/Pd
Initial state : 
Electrolyte : NaCl (0.2M)
Comments : Fe(CN)63-/Fe(CN)64- 5.10-3 M
Cable : ULC
Reference electrode : SCE Saturated Calomel Electrode (0.241 V)
Electrode surface area : 0.001 cm2
Characteristic mass : 0.001 g
Equivalent Weight : 0.000 g/eq.
Density : 0.000 g/cm3
Volume (V) : 0.001 cm3
Cycle Definition : Charge/Discharge alternance
tR (h:m:s)          0:00:5.0000         
dER/dt (mV/h)       0.0                 
dER (mV)            0                   
dtR (s)             0.0500              
dE/dt               10.000              
dE/dt unit          mV/s                
Ei (V)              -0.800              
vs.                 Ref                 
EL (V)              0.010               
vs.                 Ref                 
record              <I>                 
dI                  0.000               
unit dI             uA                  
tI (s)              0.0000              
step percent        50                  
N                   10                  
E range min (V)     -2.500              
E range max (V)     2.500               
I Range             Auto                
I Range min         Unset               
I Range max         Unset               
I Range init        Unset               
Bandwidth           8                   

Ewe/V	<I>/mA	
-2.8926226E-001	0.000000000000000E+000
-2.8926226E-001	0.000000000000000E+000
-2.8922406E-001	0.000000000000000E+000
-2.8883842E-001	0.000000000000000E+000
-2.8922787E-001	0.000000000000000E+000
-2.8915152E-001	0.000000000000000E+000
-2.8916678E-001	0.000000000000000E+000
-2.8959063E-001	0.000000000000000E+000
-2.8931189E-001	0.000000000000000E+000
-2.8893769E-001	0.000000000000000E+000
-2.8896061E-001	0.000000000000000E+000
-2.8891858E-001	0.000000000000000E+000
-2.8923553E-001	0.000000000000000E+000
-2.8901789E-001	0.000000000000000E+000
-2.8902933E-001	0.000000000000000E+000
-2.8934628E-001	0.000000000000000E+000
-2.8891480E-001	0.000000000000000E+000
-2.8889951E-001	0.000000000000000E+000
-2.8914770E-001	0.000000000000000E+000
-2.8908280E-001	0.000000000000000E+000
-2.8944552E-001	0.000000000000000E+000
-2.8893006E-001	0.000000000000000E+000
-2.8899878E-001	0.000000000000000E+000
-2.8907898E-001	0.000000000000000E+000
-2.8911716E-001	0.000000000000000E+000
-2.8878880E-001	0.000000000000000E+000
-2.8884223E-001	0.000000000000000E+000
-2.8887278E-001	0.000000000000000E+000
-2.8921261E-001	0.000000000000000E+000
-2.8900644E-001	0.000000000000000E+000
-2.8878114E-001	0.000000000000000E+000
-2.8882316E-001	0.000000000000000E+000
-2.8878498E-001	0.000000000000000E+000
-2.8875062E-001	0.000000000000000E+000
-2.8912860E-001	0.000000000000000E+000
-2.8924698E-001	0.000000000000000E+000
-2.8889188E-001	0.000000000000000E+000
-2.8902170E-001	0.000000000000000E+000
-2.8884223E-001	0.000000000000000E+000
-2.8883842E-001	0.000000000000000E+000
-2.8931570E-001	0.000000000000000E+000
-2.8900263E-001	0.000000000000000E+000
-2.8894916E-001	0.000000000000000E+000
-2.8894153E-001	0.000000000000000E+000
-2.8888425E-001	0.000000000000000E+000
-2.8900260E-001	0.000000000000000E+000
-2.8896061E-001	0.000000000000000E+000
-2.8899878E-001	0.000000000000000E+000
-2.8900641E-001	0.000000000000000E+000
-2.8895298E-001	0.000000000000000E+000
-2.8910953E-001	0.000000000000000E+000
-2.8902170E-001	0.000000000000000E+000
-2.8909424E-001	0.000000000000000E+000
-2.8899878E-001	0.000000000000000E+000
-2.8875825E-001	0.000000000000000E+000
-2.8932333E-001	0.000000000000000E+000
-2.8865898E-001	0.000000000000000E+000
-2.8902933E-001	0.000000000000000E+000
-2.8842223E-001	0.000000000000000E+000
-2.8885752E-001	0.000000000000000E+000
-2.8899878E-001	0.000000000000000E+000
-2.9359984E-001	0.000000000000000E+000
-2.9369912E-001	0.000000000000000E+000
-7.8929442E-001	-4.001029107881635E+000
-7.8866184E-001	-3.971454505285550E+000
-7.8777796E-001	-3.933827740726656E+000
-7.8676498E-001	-3.905349071930967E+000
-7.8581303E-001	-3.881786825845445E+000
-7.8477496E-001	-3.861945828905810E+000
-7.8378499E-001	-3.845136836723043E+000
-7.8273314E-001	-3.829744569516916E+000
-7.8174537E-001	-3.816022283501113E+000
-7.8078425E-001	-3.802927974197587E+000
-7.7975273E-001	-3.790986648863097E+000
-7.7878195E-001	-3.779779406057456E+000
-7.7774042E-001	-3.769066683120201E+000
-7.7683216E-001	-3.758368891597428E+000
-7.7580392E-001	-3.748262504184709E+000
-7.7483934E-001	-3.738255092943163E+000
-7.7386844E-001	-3.728364084551671E+000
-7.7277559E-001	-3.718442602290040E+000
-7.7179646E-001	-3.709035656518413E+000
-7.7077496E-001	-3.699517047219885E+000
-7.6980937E-001	-3.690027451073689E+000
-7.6876068E-001	-3.680668755813876E+000
-7.6771384E-001	-3.671178541986389E+000
-7.6677287E-001	-3.662148598719540E+000
-7.6580566E-001	-3.653211398809042E+000
-7.6484227E-001	-3.643802798439623E+000
-7.6383120E-001	-3.634866401001261E+000
-7.6283717E-001	-3.625895423469693E+000
-7.6191235E-001	-3.616885305386788E+000
-7.6084316E-001	-3.607888925958553E+000
-7.5985914E-001	-3.598923142861437E+000
-7.5883621E-001	-3.589849084399731E+000
-7.5781077E-001	-3.581171168221360E+000
-7.5686812E-001	-3.572256684855191E+000
-7.5582170E-001	-3.563352843965506E+000
-7.5481671E-001	-3.554409138582358E+000
-7.5382990E-001	-3.545707790203934E+000
-7.5286359E-001	-3.536852759895510E+000
-7.5182146E-001	-3.528238491879570E+000
-7.5087410E-001	-3.519398863809030E+000
-7.4991292E-001	-3.510618979180311E+000
-7.4884486E-001	-3.501975550695700E+000
-7.4778783E-001	-3.493393960788872E+000
-7.4685937E-001	-3.484595017852602E+000
-7.4577725E-001	-3.475914300591846E+000
-7.4491996E-001	-3.467196586465391E+000
-7.4380046E-001	-3.458636453858126E+000
-7.4277353E-001	-3.449974898386884E+000
-7.4186707E-001	-3.441724395034143E+000
-7.4084896E-001	-3.432735550182827E+000
-7.3989147E-001	-3.424471945674334E+000
-7.3885727E-001	-3.415869213819365E+000
-7.3777139E-001	-3.406894366498335E+000
-7.3686498E-001	-3.398666382387827E+000
-7.3591596E-001	-3.389776042747609E+000
-7.3484933E-001	-3.381227134002586E+000
-7.3380244E-001	-3.372748713802402E+000
-7.3281980E-001	-3.364206184728026E+000
-7.3187339E-001	-3.355802404107855E+000
-7.3083192E-001	-3.347273472834509E+000
-7.2982508E-001	-3.338730257735705E+000
-7.2890717E-001	-3.330263982216522E+000
-7.2789389E-001	-3.321828495021208E+000
-7.2686839E-001	-3.313771376328511E+000
-7.2584987E-001	-3.305004494057748E+000
-7.2488767E-001	-3.296879690002505E+000
-7.2392756E-001	-3.287863660155367E+000
-7.2284168E-001	-3.279666394547180E+000
-7.2186941E-001	-3.271208661022008E+000
-7.2087157E-001	-3.262881723179632E+000
-7.1981049E-001	-3.254526196806516E+000
-7.1882629E-001	-3.246097377052990E+000
-7.1785235E-001	-3.237560488919247E+000
-7.1684581E-001	-3.229180658305140E+000
-7.1587139E-001	-3.220890864177974E+000
-7.1484113E-001	-3.212457923395426E+000
-7.1383810E-001	-3.204079172677465E+000
-7.1289504E-001	-3.195933908224099E+000
-7.1185529E-001	-3.187953331320742E+000
-7.1086955E-001	-3.179474431607431E+000
-7.0986515E-001	-3.170857491316632E+000
-7.0881933E-001	-3.162479751982033E+000
-7.0789999E-001	-3.154103490489497E+000
-7.0688224E-001	-3.145967501181149E+000
-7.0591402E-001	-3.137750934419500E+000
-7.0484245E-001	-3.129324069177677E+000
-7.0385069E-001	-3.120989639725948E+000
-7.0294571E-001	-3.112750308706168E+000
-7.0185626E-001	-3.104534292662578E+000
-7.0092207E-001	-3.095942013241618E+000
-6.9988352E-001	-3.087803560941627E+000
-6.9885474E-001	-3.079526583629622E+000
-6.9792134E-001	-3.071481974864444E+000
-6.9686943E-001	-3.063354746719009E+000
-6.9592965E-001	-3.054963064414483E+000
-6.9486463E-001	-3.046707649197851E+000
-6.9389385E-001	-3.038425325651474E+000
-6.9278723E-001	-3.030069292695419E+000
-6.9186449E-001	-3.021758886399105E+000
-6.9090837E-001	-3.013760666556408E+000
-6.8986809E-001	-3.005380589652948E+000
-6.8889076E-001	-2.997412608235365E+000
-6.8789619E-001	-2.989196642681392E+000
-6.8685848E-001	-2.980899914271298E+000
-6.8587786E-001	-2.972703958783885E+000
-6.8480462E-001	-2.964507917287179E+000
-6.8388337E-001	-2.956354506865679E+000
-6.8283617E-001	-2.948075892679029E+000
-6.8185431E-001	-2.940049560257705E+000
-6.8096918E-001	-2.931976660534183E+000
-6.7983210E-001	-2.923791555080612E+000
-6.7887646E-001	-2.915602929614207E+000
-6.7784286E-001	-2.907192653803911E+000
-6.7683941E-001	-2.898998315639705E+000
-6.7590415E-001	-2.890931995378594E+000
-6.7493027E-001	-2.882619569974914E+000
-6.7388010E-001	-2.874626535922644E+000
-6.7285466E-001	-2.866566053695138E+000
-6.7184258E-001	-2.858310605640781E+000
-6.7087573E-001	-2.850383570701123E+000
-6.6982377E-001	-2.842081170943061E+000
-6.6893750E-001	-2.834205268433806E+000
-6.6790366E-001	-2.826124541725768E+000
-6.6685104E-001	-2.818120528426437E+000
-6.6585147E-001	-2.810115451890013E+000
-6.6491431E-001	-2.801693324334281E+000
-6.6391754E-001	-2.793952546461853E+000
-6.6282904E-001	-2.785717763006694E+000
-6.6182154E-001	-2.777693756652653E+000
-6.6092485E-001	-2.769906114096997E+000
-6.5990621E-001	-2.761624023870176E+000
-6.5889472E-001	-2.753584655180383E+000
-6.5790838E-001	-2.745588736125715E+000
-6.5685749E-001	-2.737859955264462E+000
-6.5593755E-001	-2.729574234761479E+000
-6.5477788E-001	-2.721549579666714E+000
-6.5390360E-001	-2.713515311479567E+000
-6.5289229E-001	-2.705586390433869E+000
-6.5187991E-001	-2.697871220056652E+000
-6.5086508E-001	-2.690058889212427E+000
-6.4994216E-001	-2.681647942603320E+000
-6.4882684E-001	-2.673678948371503E+000
-6.4785874E-001	-2.665823484736448E+000
-6.4688319E-001	-2.657488623753672E+000
-6.4579463E-001	-2.649715186269194E+000
-6.4487022E-001	-2.641714261085895E+000
-6.4379364E-001	-2.633670055784179E+000
-6.4290422E-001	-2.625803721447788E+000
-6.4186603E-001	-2.617768693853307E+000
-6.4088559E-001	-2.609924382746030E+000
-6.3989514E-001	-2.601804448222673E+000
-6.3886231E-001	-2.593903779707576E+000
-6.3791043E-001	-2.585948021394344E+000
-6.3687402E-001	-2.578187150535754E+000
-6.3585055E-001	-2.570093604149639E+000
-6.3487315E-001	-2.562278104772204E+000
-6.3389087E-001	-2.554444030755096E+000
-6.3291359E-001	-2.546424313551853E+000
-6.3187158E-001	-2.538444038939975E+000
-6.3092345E-001	-2.530692766386046E+000
-6.2984228E-001	-2.522897513928239E+000
-6.2886095E-001	-2.514965243961495E+000
-6.2788618E-001	-2.506996572845498E+000
-6.2691027E-001	-2.499226531772695E+000
-6.2594438E-001	-2.491449593537868E+000
-6.2487906E-001	-2.483672887086861E+000
-6.2385458E-001	-2.475964467694631E+000
-6.2291646E-001	-2.468028318274895E+000
-6.2193942E-001	-2.460159356395405E+000
-6.2088901E-001	-2.452217048075493E+000
-6.1994874E-001	-2.444242882783762E+000
-6.1896628E-001	-2.436632473435672E+000
-6.1785102E-001	-2.428690161651353E+000
-6.1687315E-001	-2.421018912560413E+000
-6.1586833E-001	-2.413232745671703E+000
-6.1484206E-001	-2.405374123582270E+000
-6.1395687E-001	-2.397526794285685E+000
-6.1287713E-001	-2.389962225876467E+000
-6.1188149E-001	-2.382419610285833E+000
-6.1087954E-001	-2.374274505785216E+000
-6.0985386E-001	-2.366541455189399E+000
-6.0889715E-001	-2.358946598177660E+000
-6.0782701E-001	-2.350863275428619E+000
-6.0692912E-001	-2.343496251161454E+000
-6.0588998E-001	-2.335722907921681E+000
-6.0496837E-001	-2.327871361540421E+000
-6.0383856E-001	-2.320654553947620E+000
-6.0283214E-001	-2.312254496637578E+000
-6.0189444E-001	-2.304693618582355E+000
-6.0084420E-001	-2.296773495497540E+000
-5.9993351E-001	-2.289264042886487E+000
-5.9886378E-001	-2.281726997207706E+000
-5.9789795E-001	-2.273506574884614E+000
-5.9696227E-001	-2.266314451890768E+000
-5.9590483E-001	-2.258189618311548E+000
-5.9492844E-001	-2.250745777730585E+000
-5.9392351E-001	-2.243049695478447E+000
-5.9289008E-001	-2.235338444511096E+000
-5.9184939E-001	-2.227641608979964E+000
-5.9089237E-001	-2.219956319730215E+000
-5.8991283E-001	-2.212648422629744E+000
-5.8902168E-001	-2.204800074023222E+000
-5.8795249E-001	-2.197568100591361E+000
-5.8684182E-001	-2.190228036708287E+000
-5.8588332E-001	-2.182582085331273E+000
-5.8493799E-001	-2.174927986021991E+000
-5.8392221E-001	-2.167207886499384E+000
-5.8294874E-001	-2.159360436929601E+000
-5.8195245E-001	-2.152110298119663E+000
-5.8097446E-001	-2.144274195863140E+000
-5.7986271E-001	-2.136769024310293E+000
-5.7897419E-001	-2.129055799726579E+000
-5.7795697E-001	-2.121481480697796E+000
-5.7693005E-001	-2.113559076355564E+000
-5.7589304E-001	-2.106063295249434E+000
-5.7483041E-001	-2.098409233545823E+000
-5.7394433E-001	-2.090686276555065E+000
-5.7299846E-001	-2.083240950847507E+000
-5.7194519E-001	-2.075531207852897E+000
-5.7091707E-001	-2.068272553660247E+000
-5.6994736E-001	-2.060595262756604E+000
-5.6885326E-001	-2.053024497573016E+000
-5.6794178E-001	-2.045488395072802E+000
-5.6697112E-001	-2.037997444709770E+000
-5.6589627E-001	-2.030361335310680E+000
-5.6490731E-001	-2.022853157586519E+000
-5.6390709E-001	-2.015117376514869E+000
-5.6295341E-001	-2.007624893276788E+000
-5.6189919E-001	-2.000181119012311E+000
-5.6092966E-001	-1.992578648582651E+000
-5.5994093E-001	-1.985290597434403E+000
-5.5895489E-001	-1.977776340974813E+000
-5.5797303E-001	-1.970152001414032E+000
-5.5688483E-001	-1.962663947708084E+000
-5.5599308E-001	-1.955031195273030E+000
-5.5493355E-001	-1.947495223195461E+000
-5.5395067E-001	-1.939957075648834E+000
-5.5294394E-001	-1.932596917754546E+000
-5.5196786E-001	-1.925214011911997E+000
-5.5099171E-001	-1.918075642376031E+000
-5.4994088E-001	-1.910194910453807E+000
-5.4889780E-001	-1.902703767021498E+000
-5.4787070E-001	-1.895661192911653E+000
-5.4692680E-001	-1.887921518013851E+000
-5.4592741E-001	-1.880451198529311E+000
-5.4501629E-001	-1.873108072689288E+000
-5.4394239E-001	-1.865681826207862E+000
-5.4287779E-001	-1.858328661984878E+000
-5.4188871E-001	-1.850927736472197E+000
-5.4085392E-001	-1.843265833820553E+000
-5.3995818E-001	-1.835797930481252E+000
-5.3891826E-001	-1.828507188017724E+000
-5.3788406E-001	-1.820762452783889E+000
-5.3690499E-001	-1.813684043784924E+000
-5.3597671E-001	-1.806061792704792E+000
-5.3483528E-001	-1.798935215891223E+000
-5.3394812E-001	-1.791290806399452E+000
-5.3296769E-001	-1.783941687533144E+000
-5.3190982E-001	-1.776655925612705E+000
-5.3088123E-001	-1.769036237564357E+000
-5.2991682E-001	-1.762023151196821E+000
-5.2891082E-001	-1.754548419979623E+000
-5.2785736E-001	-1.746938867701427E+000
-5.2690333E-001	-1.739683841941527E+000
-5.2597421E-001	-1.732509977333972E+000
-5.2494943E-001	-1.725216924868249E+000
-5.2386469E-001	-1.717610431766062E+000
-5.2292341E-001	-1.710431633912577E+000
-5.2187300E-001	-1.703036338642789E+000
-5.2092898E-001	-1.695829278065096E+000
-5.1987028E-001	-1.688184951779764E+000
-5.1894391E-001	-1.681095437319186E+000
-5.1791358E-001	-1.673736732315128E+000
-5.1695770E-001	-1.666458882230813E+000
-5.1590163E-001	-1.659283813503045E+000
-5.1489609E-001	-1.652046747781611E+000
-5.1390147E-001	-1.644506702955859E+000
-5.1291037E-001	-1.637188441499520E+000
-5.1189959E-001	-1.630226790904999E+000
-5.1089162E-001	-1.622530888017288E+000
-5.0995564E-001	-1.615248892594270E+000
-5.0891393E-001	-1.608052567751322E+000
-5.0799090E-001	-1.601023388712264E+000
-5.0692499E-001	-1.593840288619205E+000
-5.0591356E-001	-1.586407083328119E+000
-5.0494266E-001	-1.578996409050233E+000
-5.0393504E-001	-1.571860491677576E+000
-5.0296253E-001	-1.564717353080169E+000
-5.0191194E-001	-1.557450571780265E+000
-5.0097334E-001	-1.550383727859554E+000
-4.9990019E-001	-1.543029418422120E+000
-4.9890429E-001	-1.535802320659688E+000
-4.9788156E-001	-1.528475093758765E+000
-4.9696749E-001	-1.521277555299029E+000
-4.9592981E-001	-1.514048697759851E+000
-4.9487129E-001	-1.507083643779711E+000
-4.9388158E-001	-1.500149948010513E+000
-4.9291882E-001	-1.492594592135261E+000
-4.9186012E-001	-1.485395497883907E+000
-4.9095255E-001	-1.478108978915078E+000
-4.8988184E-001	-1.471009535508024E+000
-4.8893508E-001	-1.464061239527330E+000
-4.8794588E-001	-1.456612524832089E+000
-4.8696145E-001	-1.449441970636457E+000
-4.8594728E-001	-1.442583098179766E+000
-4.8499274E-001	-1.435301241266959E+000
-4.8391595E-001	-1.428021864482648E+000
-4.8291323E-001	-1.420896124370675E+000
-4.8187649E-001	-1.413749415387404E+000
-4.8092729E-001	-1.406629848949333E+000
-4.7986007E-001	-1.399606147712028E+000
-4.7891742E-001	-1.392506169005124E+000
-4.7795787E-001	-1.385339883604539E+000
-4.7690579E-001	-1.378277816292314E+000
-4.7594523E-001	-1.371105887808405E+000
-4.7495973E-001	-1.363832616695650E+000
-4.7397608E-001	-1.356672182127276E+000
-4.7293252E-001	-1.349860785961475E+000
-4.7194162E-001	-1.342330691715081E+000
-4.7098663E-001	-1.335947650726197E+000
-4.6991929E-001	-1.328444992726183E+000
-4.6888399E-001	-1.321426597044422E+000
-4.6796247E-001	-1.314325416391647E+000
-4.6694744E-001	-1.307354803293792E+000
-4.6589109E-001	-1.300219690910097E+000
-4.6497339E-001	-1.293374417280707E+000
-4.6392128E-001	-1.286278457360481E+000
-4.6292746E-001	-1.279032453066776E+000
-4.6192253E-001	-1.271975880971663E+000
-4.6101058E-001	-1.264723542527346E+000
-4.5998332E-001	-1.257603270174174E+000
-4.5896533E-001	-1.250727693929715E+000
-4.5790714E-001	-1.243556611762247E+000
-4.5689070E-001	-1.236660603847767E+000
-4.5592219E-001	-1.229449618469786E+000
-4.5491603E-001	-1.222714026474645E+000
-4.5388085E-001	-1.215641840050621E+000
-4.5292056E-001	-1.208653010841875E+000
-4.5190176E-001	-1.201465726877294E+000
-4.5095792E-001	-1.194857469035520E+000
-4.4988713E-001	-1.187913982680552E+000
-4.4892138E-001	-1.180773989296341E+000
-4.4797203E-001	-1.173777896772926E+000
-4.4689953E-001	-1.166758392971973E+000
-4.4599521E-001	-1.159817423634809E+000
-4.4495323E-001	-1.152941940145363E+000
-4.4390216E-001	-1.145885906147733E+000
-4.4294819E-001	-1.138970600775315E+000
-4.4198346E-001	-1.131781458164807E+000
-4.4097522E-001	-1.125225298796535E+000
-4.3986422E-001	-1.118126958055022E+000
-4.3888575E-001	-1.111357203650252E+000
-4.3795219E-001	-1.104232043027878E+000
-4.3691340E-001	-1.097237609922527E+000
-4.3593058E-001	-1.090110886704035E+000
-4.3489060E-001	-1.083385139013886E+000
-4.3390161E-001	-1.076662058355627E+000
-4.3298987E-001	-1.069474355490119E+000
-4.3189847E-001	-1.062647688030092E+000
-4.3095663E-001	-1.055776799124647E+000
-4.2994416E-001	-1.049072232649284E+000
-4.2890313E-001	-1.041689832799886E+000
-4.2795670E-001	-1.034870122455892E+000
-4.2697668E-001	-1.028165249498906E+000
-4.2604139E-001	-1.021482951688033E+000
-4.2495599E-001	-1.014767681007033E+000
-4.2398104E-001	-1.007364266172603E+000
-4.2292318E-001	-1.000646461901843E+000
-4.2197964E-001	-9.939243976992564E-001
-4.2091006E-001	-9.868596542488710E-001
-4.1999629E-001	-9.798370296503691E-001
-4.1894773E-001	-9.729384404641621E-001
-4.1803339E-001	-9.661940580440902E-001
-4.1695368E-001	-9.594197811626834E-001
-4.1600081E-001	-9.526866272919712E-001
-4.1499683E-001	-9.461666262812081E-001
-4.1401866E-001	-9.392442900958837E-001
-4.1296378E-001	-9.323388609897201E-001
-4.1206139E-001	-9.255874035534957E-001
-4.1095623E-001	-9.183157828121287E-001
-4.0989113E-001	-9.117648223484007E-001
-4.0900081E-001	-9.049749686210262E-001
-4.0797481E-001	-8.978824342831633E-001
-4.0690985E-001	-8.912448121441727E-001
-4.0597141E-001	-8.844950378493017E-001
-4.0488565E-001	-8.775614181957359E-001
-4.0393758E-001	-8.710137106202280E-001
-4.0297598E-001	-8.643532244971492E-001
-4.0195665E-001	-8.574197433569273E-001
-4.0101826E-001	-8.504665524319364E-001
-4.0002465E-001	-8.437103880224406E-001
-3.9893305E-001	-8.371363777707836E-001
-3.9801431E-001	-8.304280427594932E-001
-3.9701775E-001	-8.235967668394224E-001
-3.9598262E-001	-8.174278048292747E-001
-3.9487758E-001	-8.103897908219615E-001
-3.9400938E-001	-8.036495008402422E-001
-3.9299148E-001	-7.966667658312634E-001
-3.9195955E-001	-7.897569280531673E-001
-3.9089572E-001	-7.834859014385280E-001
-3.8998803E-001	-7.770796093787595E-001
-3.8900188E-001	-7.701267771146938E-001
-3.8795483E-001	-7.632191655122567E-001
-3.8703063E-001	-7.566246137964256E-001
-3.8598412E-001	-7.501430541828840E-001
-3.8496596E-001	-7.432635767316373E-001
-3.8393068E-001	-7.361969663495973E-001
-3.8295263E-001	-7.296749671438185E-001
-3.8191468E-001	-7.231795793330238E-001
-3.8098574E-001	-7.165719099715115E-001
-3.7997121E-001	-7.105353459439907E-001
-3.7898287E-001	-7.033029552549088E-001
-3.7794909E-001	-6.965461806894258E-001
-3.7701601E-001	-6.901720833309257E-001
-3.7596706E-001	-6.833296862465392E-001
-3.7493563E-001	-6.763700083734285E-001
-3.7401718E-001	-6.700503920653320E-001
-3.7292513E-001	-6.635041742551113E-001
-3.7191403E-001	-6.566140554450453E-001
-3.7099373E-001	-6.500906197837111E-001
-3.6996362E-001	-6.438398936556453E-001
-3.6905396E-001	-6.367858567624625E-001
-3.6795986E-001	-6.303580917280041E-001
-3.6702698E-001	-6.239963256650505E-001
-3.6599991E-001	-6.170402226204175E-001
-3.6499792E-001	-6.104570674123564E-001
-3.6396784E-001	-6.039577703922980E-001
-3.6299846E-001	-5.972842550843989E-001
-3.6201438E-001	-5.908937881252267E-001
-3.6098790E-001	-5.844042378443266E-001
-3.5998940E-001	-5.777931259660085E-001
-3.5900453E-001	-5.712555240563795E-001
-3.5798958E-001	-5.648484217313638E-001
-3.5699481E-001	-5.578602362010194E-001
-3.5593078E-001	-5.514011445834677E-001
-3.5497883E-001	-5.450153434167824E-001
-3.5396689E-001	-5.383785209032137E-001
-3.5297140E-001	-5.321061152412954E-001
-3.5193884E-001	-5.256612319549154E-001
-3.5106459E-001	-5.192371110121403E-001
-3.4996915E-001	-5.125177001097700E-001
-3.4903455E-001	-5.061832227097600E-001
-3.4802496E-001	-4.993255904841227E-001
-3.4698790E-001	-4.928763052103697E-001
-3.4594870E-001	-4.866155365514493E-001
-3.4502697E-001	-4.801757212866260E-001
-3.4406054E-001	-4.737578446942354E-001
-3.4292689E-001	-4.673215339342018E-001
-3.4199291E-001	-4.606720801028932E-001
-3.4103155E-001	-4.541268844019495E-001
-3.3998260E-001	-4.477681062715426E-001
-3.3878499E-001	-4.410889127843629E-001
-3.3778989E-001	-4.339930246135690E-001
-3.3667019E-001	-4.274514132514184E-001
-3.3582005E-001	-4.210042305014725E-001
-3.3480397E-001	-4.148422795589320E-001
-3.3369932E-001	-4.080159266756098E-001
-3.3271766E-001	-4.017897199977334E-001
-3.3162838E-001	-3.952187790914845E-001
-3.3073279E-001	-3.887594147778595E-001
-3.2975999E-001	-3.824863114773662E-001
-3.2866073E-001	-3.764254885760145E-001
-3.2772461E-001	-3.695252349608076E-001
-3.2681713E-001	-3.635499665720605E-001
-3.2581931E-001	-3.568359447505181E-001
-3.2475248E-001	-3.505203390086304E-001
-3.2368037E-001	-3.441159499257260E-001
-3.2272327E-001	-3.376088179647927E-001
-3.2178935E-001	-3.313668371074165E-001
-3.2071230E-001	-3.249793604913127E-001
-3.1977281E-001	-3.189770818722462E-001
-3.1870261E-001	-3.125286656844266E-001
-3.1772089E-001	-3.062440163490391E-001
-3.1686750E-001	-2.998609513182324E-001
-3.1574005E-001	-2.933791915131745E-001
-3.1490871E-001	-2.871882263571028E-001
-3.1374690E-001	-2.808930256141942E-001
-3.1293231E-001	-2.744135537219277E-001
-3.1176901E-001	-2.683433571968370E-001
-3.1086242E-001	-2.621907266152970E-001
-3.0988726E-001	-2.557179711897080E-001
-3.0871332E-001	-2.491317695972529E-001
-3.0766159E-001	-2.430191344750268E-001
-3.0670702E-001	-2.365279545386625E-001
-3.0557767E-001	-2.305302770670367E-001
-3.0471385E-001	-2.240791543437108E-001
-3.0362120E-001	-2.178459750419414E-001
-3.0276740E-001	-2.118318984974872E-001
-3.0180421E-001	-2.050591096473373E-001
-3.0075875E-001	-1.988876682395730E-001
-2.9976049E-001	-1.928351302631204E-001
-2.9869166E-001	-1.865367969317502E-001
-2.9776481E-001	-1.804682065870749E-001
-2.9677969E-001	-1.741189003094199E-001
-2.9568806E-001	-1.678841298957758E-001
-2.9467285E-001	-1.617807428076588E-001
-2.9371995E-001	-1.555562584695436E-001
-2.9273191E-001	-1.493246820958061E-001
-2.9173380E-001	-1.430319379152800E-001
-2.9083037E-001	-1.368454796503533E-001
-2.8965971E-001	-1.305226867510234E-001
-2.8853980E-001	-1.246064273399052E-001
-2.8778827E-001	-1.182588637047618E-001
-2.8677884E-001	-1.118923833701708E-001
-2.8570178E-001	-1.061014048237769E-001
-2.8473681E-001	-9.980347344686269E-002
-2.8362823E-001	-9.357552517282164E-002
-2.8269827E-001	-8.764456712675317E-002
-2.8177443E-001	-8.136523618466340E-002
-2.8075305E-001	-7.518557373211893E-002
-2.7966529E-001	-6.903777441389314E-002
-2.7875438E-001	-6.297232168381714E-002
-2.7781430E-001	-5.671295751647054E-002
-2.7659726E-001	-5.097998057802533E-002
-2.7573642E-001	-4.470276958050423E-002
-2.7450746E-001	-3.806378612925498E-002
-2.7346474E-001	-3.085352730057733E-002
-2.7245376E-001	-2.492303554943107E-002
-2.7147245E-001	-1.885272709175873E-002
-2.7035964E-001	-1.252997489602956E-002
-2.6944104E-001	-6.613555206938126E-003
-2.6843587E-001	-5.002753263780736E-004
-2.6751205E-001	5.617393226000588E-003
-2.6639619E-001	1.174464057948206E-002
-2.6536405E-001	1.783205340055885E-002
-2.6449281E-001	2.352798828441238E-002
-2.6331520E-001	3.007913607722171E-002
-2.6242927E-001	3.567832400073745E-002
-2.6142251E-001	4.201521714976817E-002
-2.6028791E-001	4.776320349083307E-002
-2.5945905E-001	5.403088911919407E-002
-2.5840497E-001	5.976493095254742E-002
-2.5744691E-001	6.587999299834336E-002
-2.5644490E-001	7.203087446072876E-002
-2.5539386E-001	7.793433971151151E-002
-2.5438178E-001	8.407443550192473E-002
-2.5343484E-001	9.037884707666155E-002
-2.5242278E-001	9.612574915539662E-002
-2.5134808E-001	1.021150241632602E-001
-2.5046337E-001	1.089438815997097E-001
-2.4912612E-001	1.155637699282828E-001
-2.4803516E-001	1.214059325560080E-001
-2.4702221E-001	1.274805414421416E-001
-2.4619006E-001	1.334595501905791E-001
-2.4520460E-001	1.395517871457356E-001
-2.4425440E-001	1.454308153026633E-001
-2.4300559E-001	1.513087794322661E-001
-2.4203537E-001	1.570084570281451E-001
-2.4114501E-001	1.630544362727691E-001
-2.3993249E-001	1.690223074552644E-001
-2.3914070E-001	1.749174798892623E-001
-2.3810503E-001	1.807163947054906E-001
-2.3708978E-001	1.865619184725267E-001
-2.3615167E-001	1.921818822811452E-001
-2.3527780E-001	1.975820896698650E-001
-2.3399314E-001	2.039819734722919E-001
-2.3323649E-001	2.099722899841774E-001
-2.3204370E-001	2.159966223838704E-001
-2.3117843E-001	2.217930125900461E-001
-2.3023976E-001	2.274417502088730E-001
-2.2924446E-001	2.331119256990917E-001
-2.2805060E-001	2.391799880467631E-001
-2.2720657E-001	2.447571442844932E-001
-2.2612768E-001	2.506136854213707E-001
-2.2513787E-001	2.565543979613314E-001
-2.2415680E-001	2.623198909831977E-001
-2.2309741E-001	2.679608680169903E-001
-2.2208035E-001	2.739458366663242E-001
-2.2098190E-001	2.798063440800267E-001
-2.2013380E-001	2.856787157210500E-001
-2.1917935E-001	2.912044620418497E-001
-2.1799047E-001	2.970747942173921E-001
-2.1714704E-001	3.031008247700007E-001
-2.1616951E-001	3.086343305877142E-001
-2.1500669E-001	3.144360163628499E-001
-2.1410558E-001	3.200629120002745E-001
-2.1307550E-001	3.256865645793710E-001
-2.1206424E-001	3.313963750584259E-001
-2.1121322E-001	3.372584214365051E-001
-2.1014698E-001	3.427178234759316E-001
-2.0898968E-001	3.483480417549050E-001
-2.0809536E-001	3.543245057333948E-001
-2.0707278E-001	3.598516653944950E-001
-2.0612554E-001	3.654686188394269E-001
-2.0521742E-001	3.710879566561838E-001
-2.0404938E-001	3.770694887545556E-001
-2.0309320E-001	3.827662549705977E-001
-2.0214008E-001	3.882116264905111E-001
-2.0101638E-001	3.938733851438219E-001
-2.0004450E-001	3.992378853123508E-001
-1.9911262E-001	4.050671821805070E-001
-1.9796607E-001	4.107413702150176E-001
-1.9706261E-001	4.162651101058286E-001
-1.9618249E-001	4.218458011746407E-001
-1.9514385E-001	4.275765858865626E-001
-1.9407140E-001	4.331601602887676E-001
-1.9319446E-001	4.391452493490977E-001
-1.9215728E-001	4.446466593124423E-001
-1.9105090E-001	4.503358700485141E-001
-1.8995379E-001	4.555715047236975E-001
-1.8898997E-001	4.612563473788827E-001
-1.8800941E-001	4.668177085480213E-001
-1.8706356E-001	4.724023508390900E-001
-1.8609907E-001	4.775923133687141E-001
-1.8508165E-001	4.835106127515999E-001
-1.8417862E-001	4.889463126245501E-001
-1.8311852E-001	4.944547879362968E-001
-1.8212779E-001	5.001414474789740E-001
-1.8120863E-001	5.056607813608887E-001
-1.8003295E-001	5.109098508638072E-001
-1.7891766E-001	5.164147124246350E-001
-1.7809948E-001	5.214526200736023E-001
-1.7711823E-001	5.271435539914169E-001
-1.7607619E-001	5.329870763062328E-001
-1.7514837E-001	5.383849268848131E-001
-1.7414995E-001	5.436631024488925E-001
-1.7307013E-001	5.490445328393445E-001
-1.7218874E-001	5.544694724182277E-001
-1.7114213E-001	5.601813358802037E-001
-1.7012094E-001	5.651410395210572E-001
-1.6907620E-001	5.709440274922954E-001
-1.6816816E-001	5.766506717260724E-001
-1.6710237E-001	5.818582665589114E-001
-1.6601098E-001	5.873890669533495E-001
-1.6519733E-001	5.926110179836503E-001
-1.6406979E-001	5.979518849678613E-001
-1.6312288E-001	6.037876784663503E-001
-1.6198459E-001	6.088521589979470E-001
-1.6108876E-001	6.145444430272899E-001
-1.6003895E-001	6.195774577144109E-001
-1.5913911E-001	6.251101479018276E-001
-1.5817624E-001	6.302555769130025E-001
-1.5706562E-001	6.358854974318255E-001
-1.5615533E-001	6.411725255074359E-001
-1.5517889E-001	6.464692752946277E-001
-1.5402088E-001	6.517286412521308E-001
-1.5300268E-001	6.569834367406598E-001
-1.5203221E-001	6.619860472640529E-001
-1.5108821E-001	6.677030813590950E-001
-1.5001741E-001	6.729172656519538E-001
-1.4904439E-001	6.782013280662147E-001
-1.4800228E-001	6.833226772155774E-001
-1.4708391E-001	6.889183021116052E-001
-1.4620420E-001	6.941097375281459E-001
-1.4508404E-001	6.992021811895965E-001
-1.4401974E-001	7.045851987269169E-001
-1.4309822E-001	7.096588315649175E-001
-1.4211448E-001	7.148650614492134E-001
-1.4098588E-001	7.198946723645498E-001
-1.4009431E-001	7.254002105306685E-001
-1.3902242E-001	7.305546073607161E-001
-1.3815080E-001	7.359066394468172E-001
-1.3701421E-001	7.411756527230696E-001
-1.3611823E-001	7.456977788416292E-001
-1.3509023E-001	7.513620630596520E-001
-1.3401091E-001	7.564883501165429E-001
-1.3318340E-001	7.615256257913647E-001
-1.3207951E-001	7.662841478293707E-001
-1.3116354E-001	7.717339751759056E-001
-1.3016409E-001	7.774444962604736E-001
-1.2910061E-001	7.822770152103011E-001
-1.2808895E-001	7.875266255879865E-001
-1.2700766E-001	7.925862071929926E-001
-1.2605995E-001	7.976834277311990E-001
-1.2508227E-001	8.026137822480113E-001
-1.2412866E-001	8.075947481392731E-001
-1.2308592E-001	8.128870257900811E-001
-1.2205181E-001	8.180052199297485E-001
-1.2110770E-001	8.230673995304656E-001
-1.2013119E-001	8.282203508747923E-001
-1.1908159E-001	8.331885960091068E-001
-1.1803674E-001	8.376601764587832E-001
-1.1719048E-001	8.431078957186813E-001
-1.1602782E-001	8.486498563929836E-001
-1.1507500E-001	8.532695075792409E-001
-1.1417106E-001	8.586202514944272E-001
-1.1300203E-001	8.635558508060626E-001
-1.1200922E-001	8.684942696039943E-001
-1.1120702E-001	8.736402021238128E-001
-1.0999025E-001	8.784598337003509E-001
-1.0911103E-001	8.833603713027625E-001
-1.0815130E-001	8.886019622010231E-001
-1.0706714E-001	8.933537282325617E-001
-1.0609708E-001	8.981682137483347E-001
-1.0504787E-001	9.033260319244001E-001
-1.0412725E-001	9.079583514895688E-001
-1.0309066E-001	9.133618897435127E-001
-1.0208871E-001	9.180298822897441E-001
-1.0110082E-001	9.232819248680713E-001
-1.0011166E-001	9.277537719052820E-001
-9.9051476E-002	9.330829435752497E-001
-9.8065503E-002	9.376896316254584E-001
-9.7120881E-002	9.426596189958580E-001
-9.5953986E-002	9.473222888730142E-001
-9.5065378E-002	9.525729012158131E-001
-9.4053529E-002	9.574066043056035E-001
-9.3045920E-002	9.622554424460290E-001
-9.2102215E-002	9.669061576792028E-001
-9.1115773E-002	9.720708685064734E-001
-9.0039872E-002	9.764203227780506E-001
-8.9130171E-002	9.814144893640240E-001
-8.8070065E-002	9.861581624933962E-001
-8.6843751E-002	9.911460168659660E-001
-8.6083569E-002	9.955557678349942E-001
-8.5042566E-002	1.000519265041307E+000
-8.4109202E-002	1.005267589180558E+000
-8.3123021E-002	1.010008137197573E+000
-8.2074903E-002	1.014733704841802E+000
-8.1152581E-002	1.019639230850670E+000
-8.0002636E-002	1.024314794626527E+000
-7.9040423E-002	1.028561144377349E+000
-7.8191489E-002	1.033598332493396E+000
-7.7078424E-002	1.038540136823593E+000
-7.6122828E-002	1.043206903255649E+000
-7.5188190E-002	1.047678105119200E+000
-7.3999010E-002	1.052275204838830E+000
-7.3153049E-002	1.057033433130501E+000
-7.2238356E-002	1.061695347091666E+000
-7.1032032E-002	1.066415898079095E+000
-7.0173927E-002	1.070998578159900E+000
-6.9011897E-002	1.075557802148442E+000
-6.8064235E-002	1.079982871844265E+000
-6.6870891E-002	1.085022468257835E+000
-6.6119753E-002	1.089577791591486E+000
-6.4937524E-002	1.094183300483740E+000
-6.4026587E-002	1.099697566591201E+000
-6.2833250E-002	1.105588921656213E+000
-6.1867241E-002	1.110038719886379E+000
-6.0881265E-002	1.114668498850532E+000
-5.9893806E-002	1.119225767613560E+000
-5.8895580E-002	1.123815141990526E+000
-5.7897050E-002	1.128591192403326E+000
-5.6926358E-002	1.132596106854852E+000
-5.5878352E-002	1.137572398610360E+000
-5.4867446E-002	1.141689204921329E+000
-5.3890809E-002	1.146216624864826E+000
-5.2874770E-002	1.150772704740115E+000
-5.1894903E-002	1.155149008526847E+000
-5.0895784E-002	1.159812672822561E+000
-4.9910448E-002	1.163826783120197E+000
-4.8957784E-002	1.168719211938203E+000
-4.7915395E-002	1.173250644709221E+000
-4.6877664E-002	1.177500010172623E+000
-4.5898907E-002	1.182051331494691E+000
-4.4916522E-002	1.185846660789652E+000
-4.3910004E-002	1.190509691972421E+000
-4.2919155E-002	1.195107320116620E+000
-4.1932400E-002	1.199708545613873E+000
-4.0869579E-002	1.203852531810602E+000
-3.9799400E-002	1.208397625911016E+000
-3.8883865E-002	1.213123519845237E+000
-3.7888341E-002	1.217347465179579E+000
-3.6831308E-002	1.221315949465385E+000
-3.5893556E-002	1.225565322668164E+000
-3.4874223E-002	1.230013696131881E+000
-3.3870436E-002	1.234528027750827E+000
-3.2862034E-002	1.238904969037273E+000
-3.1855438E-002	1.243062177466022E+000
-3.0838924E-002	1.247156717848995E+000
-2.9904274E-002	1.251474499587985E+000
-2.8825836E-002	1.255884318026130E+000
-2.7808473E-002	1.259923076740014E+000
-2.6897702E-002	1.264321953392997E+000
-2.5903568E-002	1.268497965264103E+000
-2.4853110E-002	1.272635698870376E+000
-2.3784433E-002	1.277106680030577E+000
-2.2843203E-002	1.281211845576765E+000
-2.1878872E-002	1.285455265392869E+000
-2.0916827E-002	1.289245360094035E+000
-1.9856449E-002	1.294171133940974E+000
-1.8859239E-002	1.297690285438740E+000
-1.7864035E-002	1.301967827668694E+000
-1.6904486E-002	1.306326528252276E+000
-1.5969854E-002	1.310834535018160E+000
-1.4883267E-002	1.314411541590433E+000
-1.3863639E-002	1.318519152976847E+000
-1.2895066E-002	1.323478691831784E+000
-1.1954109E-002	1.327437310971774E+000
-1.0955797E-002	1.330743661909191E+000
-9.8493397E-003	1.335262630134819E+000
-8.8486960E-003	1.339069464700485E+000
-7.8521604E-003	1.343161816122357E+000
-6.9497703E-003	1.346937512358027E+000
-5.8960286E-003	1.350917833650930E+000
-4.8868312E-003	1.354983540182861E+000
-3.9025592E-003	1.358759133490139E+000
-2.9414983E-003	1.362983593297266E+000
-1.8576510E-003	1.367164503507045E+000
-9.0541126E-004	1.371204168984182E+000
6.1691433E-005	1.375035181408789E+000
1.0977077E-003	1.378755462942300E+000
2.1271617E-003	1.383102435618641E+000
3.1079017E-003	1.386886634414530E+000
4.2072819E-003	1.390583261847494E+000
5.1064896E-003	1.394519613020950E+000
6.0979859E-003	1.398863560401943E+000
6.7509031E-003	1.400956973433493E+000
6.6821738E-003	1.401451215147972E+000