EC-Lab ASCII FILE
Nb header lines : 63                          

Linear Sweep Voltammetry

Run on channel : 6 (SN 13765)
User : 
Electrode connection : standard
Potential control : Ewe
Ewe ctrl range : min = -2.50 V, max = 2.50 V
Ewe,I filtering : <None>
Safety Limits :
	Do not start on E overload
Channel : Floating
Acquisition started on : 07/13/2026 14:27:19.949
Technique started on : 07/13/2026 14:27:20.946
Loaded Setting File :  C:\Users\EEM-620\Desktop\Wade\20260630\LSV 1mg MoS2 1_C06.mpr
Saved on :
	File : N719_0713-0-1_C06.mpr
	Directory : C:\Users\EEM-620\Desktop\Wade\abao\20260713\
	Host : 192.109.209.200
Device : VSP-300 (SN 0025)
Address : 192.109.209.129
EC-LAB for windows v11.62 (software)
Internet server v27.00 (firmware)
Command interpretor v12.02 (firmware)
Electrode material : Au/Pd
Initial state : 
Electrolyte : NaCl (0.2M)
Comments : Fe(CN)63-/Fe(CN)64- 5.10-3 M
Cable : ULC
Reference electrode : SCE Saturated Calomel Electrode (0.241 V)
Electrode surface area : 0.001 cm2
Characteristic mass : 0.001 g
Equivalent Weight : 0.000 g/eq.
Density : 0.000 g/cm3
Volume (V) : 0.001 cm3
Cycle Definition : Charge/Discharge alternance
tR (h:m:s)          0:00:5.0000         
dER/dt (mV/h)       0.0                 
dER (mV)            0                   
dtR (s)             0.0500              
dE/dt               10.000              
dE/dt unit          mV/s                
Ei (V)              -0.800              
vs.                 Ref                 
EL (V)              0.010               
vs.                 Ref                 
record              <I>                 
dI                  0.000               
unit dI             uA                  
tI (s)              0.0000              
step percent        50                  
N                   10                  
E range min (V)     -2.500              
E range max (V)     2.500               
I Range             Auto                
I Range min         Unset               
I Range max         Unset               
I Range init        Unset               
Bandwidth           8                   

Ewe/V	<I>/mA	
-6.6012079E-001	0.000000000000000E+000
-6.5986878E-001	0.000000000000000E+000
-6.6013229E-001	0.000000000000000E+000
-6.6013986E-001	0.000000000000000E+000
-6.6034234E-001	0.000000000000000E+000
-6.6033846E-001	0.000000000000000E+000
-6.6017050E-001	0.000000000000000E+000
-6.6031557E-001	0.000000000000000E+000
-6.6021633E-001	0.000000000000000E+000
-6.6006738E-001	0.000000000000000E+000
-6.6013229E-001	0.000000000000000E+000
-6.6046453E-001	0.000000000000000E+000
-6.6027355E-001	0.000000000000000E+000
-6.6004443E-001	0.000000000000000E+000
-6.6035753E-001	0.000000000000000E+000
-6.6010940E-001	0.000000000000000E+000
-6.6019338E-001	0.000000000000000E+000
-6.6010934E-001	0.000000000000000E+000
-6.6038817E-001	0.000000000000000E+000
-6.5996808E-001	0.000000000000000E+000
-6.6034991E-001	0.000000000000000E+000
-6.6006351E-001	0.000000000000000E+000
-6.6036904E-001	0.000000000000000E+000
-6.6058666E-001	0.000000000000000E+000
-6.6059816E-001	0.000000000000000E+000
-6.6059816E-001	0.000000000000000E+000
-6.6053700E-001	0.000000000000000E+000
-6.6036516E-001	0.000000000000000E+000
-6.6035759E-001	0.000000000000000E+000
-6.6084635E-001	0.000000000000000E+000
-6.6074330E-001	0.000000000000000E+000
-6.6105253E-001	0.000000000000000E+000
-6.6027743E-001	0.000000000000000E+000
-6.6097999E-001	0.000000000000000E+000
-6.6024679E-001	0.000000000000000E+000
-6.6065544E-001	0.000000000000000E+000
-6.6103715E-001	0.000000000000000E+000
-6.6019338E-001	0.000000000000000E+000
-6.6062105E-001	0.000000000000000E+000
-6.6057140E-001	0.000000000000000E+000
-6.6056758E-001	0.000000000000000E+000
-6.6058666E-001	0.000000000000000E+000
-6.6049880E-001	0.000000000000000E+000
-6.6065925E-001	0.000000000000000E+000
-6.6044152E-001	0.000000000000000E+000
-6.6045684E-001	0.000000000000000E+000
-6.6088063E-001	0.000000000000000E+000
-6.6068971E-001	0.000000000000000E+000
-6.6075087E-001	0.000000000000000E+000
-6.6058666E-001	0.000000000000000E+000
-6.6051030E-001	0.000000000000000E+000
-6.6075081E-001	0.000000000000000E+000
-6.6083097E-001	0.000000000000000E+000
-6.6046822E-001	0.000000000000000E+000
-6.6062868E-001	0.000000000000000E+000
-6.6022015E-001	0.000000000000000E+000
-6.6034997E-001	0.000000000000000E+000
-6.6079283E-001	0.000000000000000E+000
-6.6059053E-001	0.000000000000000E+000
-6.6069353E-001	0.000000000000000E+000
-6.6089982E-001	0.000000000000000E+000
-6.6636372E-001	0.000000000000000E+000
-6.6574514E-001	0.000000000000000E+000
-7.8956479E-001	-1.602803271749750E+000
-7.8890824E-001	-1.592229596210174E+000
-7.8795302E-001	-1.576205022633077E+000
-7.8695375E-001	-1.561355082525147E+000
-7.8597790E-001	-1.547017683199258E+000
-7.8497505E-001	-1.533054608161807E+000
-7.8397971E-001	-1.519252706457070E+000
-7.8298563E-001	-1.505156013577002E+000
-7.8204465E-001	-1.491682836992872E+000
-7.8101283E-001	-1.478371200324204E+000
-7.7995986E-001	-1.464999841023236E+000
-7.7900058E-001	-1.452265980067075E+000
-7.7795243E-001	-1.439047750775458E+000
-7.7692068E-001	-1.426229165564379E+000
-7.7597189E-001	-1.413118104277933E+000
-7.7508223E-001	-1.399715514508662E+000
-7.7397496E-001	-1.387244426847438E+000
-7.7297753E-001	-1.374047432784682E+000
-7.7196664E-001	-1.360510140795402E+000
-7.7099168E-001	-1.347567792141719E+000
-7.6999086E-001	-1.334327924858641E+000
-7.6897568E-001	-1.321509511244521E+000
-7.6796150E-001	-1.309060538050719E+000
-7.6703835E-001	-1.296079973931670E+000
-7.6606190E-001	-1.282660579239881E+000
-7.6500642E-001	-1.269555581704545E+000
-7.6405239E-001	-1.257167021985413E+000
-7.6305693E-001	-1.243898240642416E+000
-7.6199669E-001	-1.231463943216681E+000
-7.6104236E-001	-1.219066624840104E+000
-7.6005340E-001	-1.206107483279921E+000
-7.5909245E-001	-1.192530764635777E+000
-7.5802827E-001	-1.179086783693895E+000
-7.5700992E-001	-1.166495077449961E+000
-7.5614947E-001	-1.153487720489263E+000
-7.5498396E-001	-1.140460714835812E+000
-7.5405967E-001	-1.127501688864665E+000
-7.5300473E-001	-1.115260613323358E+000
-7.5198388E-001	-1.102812154287536E+000
-7.5098050E-001	-1.090211770559462E+000
-7.5001252E-001	-1.077091566252490E+000
-7.4903589E-001	-1.063867815666726E+000
-7.4800873E-001	-1.051463104887890E+000
-7.4698508E-001	-1.038493238665435E+000
-7.4606991E-001	-1.026201689960775E+000
-7.4512511E-001	-1.013430561391882E+000
-7.4402690E-001	-1.000903817376601E+000
-7.4311370E-001	-9.880655211982887E-001
-7.4204010E-001	-9.757308672855913E-001
-7.4109489E-001	-9.631114353736230E-001
-7.3998612E-001	-9.503481375674394E-001
-7.3900139E-001	-9.375519401684720E-001
-7.3804134E-001	-9.249993955923443E-001
-7.3702013E-001	-9.121271026907145E-001
-7.3606187E-001	-8.995823863988626E-001
-7.3504919E-001	-8.869432986334527E-001
-7.3402131E-001	-8.740440467717470E-001
-7.3308343E-001	-8.622243032092705E-001
-7.3206455E-001	-8.497843390537625E-001
-7.3102331E-001	-8.374499689649618E-001
-7.3002076E-001	-8.246811926794155E-001
-7.2900915E-001	-8.122011082315908E-001
-7.2801143E-001	-7.993573190437395E-001
-7.2702825E-001	-7.871418500859679E-001
-7.2600991E-001	-7.739409890577740E-001
-7.2506398E-001	-7.606815962741784E-001
-7.2401011E-001	-7.481782582159902E-001
-7.2297823E-001	-7.358226301493476E-001
-7.2207791E-001	-7.243299140008510E-001
-7.2106600E-001	-7.117823592137427E-001
-7.1994901E-001	-6.996018151856136E-001
-7.1909243E-001	-6.870741408180319E-001
-7.1801740E-001	-6.743199329256067E-001
-7.1701992E-001	-6.622195068608825E-001
-7.1601039E-001	-6.499974637257822E-001
-7.1501410E-001	-6.372222722752401E-001
-7.1405226E-001	-6.251169968810326E-001
-7.1301174E-001	-6.127094450510260E-001
-7.1200877E-001	-6.004875211032497E-001
-7.1102571E-001	-5.877428585318514E-001
-7.1001524E-001	-5.752355306650756E-001
-7.0900768E-001	-5.626099846054933E-001
-7.0804530E-001	-5.497341880367852E-001
-7.0697463E-001	-5.377298570065590E-001
-7.0598197E-001	-5.260397358337112E-001
-7.0505315E-001	-5.133805369475368E-001
-7.0405507E-001	-5.005439362592128E-001
-7.0297599E-001	-4.882436916682411E-001
-7.0209062E-001	-4.750848732612745E-001
-7.0105565E-001	-4.619684531870809E-001
-6.9999993E-001	-4.496908075944557E-001
-6.9896495E-001	-4.373963303927706E-001
-6.9776225E-001	-4.235084500414628E-001
-6.9684511E-001	-4.112797449170444E-001
-6.9576418E-001	-3.994748829691499E-001
-6.9464272E-001	-3.870179175432096E-001
-6.9374651E-001	-3.749978899679807E-001
-6.9288319E-001	-3.630251067656074E-001
-6.9185364E-001	-3.507969569887894E-001
-6.9085163E-001	-3.380027743815275E-001
-6.8984681E-001	-3.258068767824645E-001
-6.8874484E-001	-3.130146904212210E-001
-6.8781507E-001	-3.009710708909017E-001
-6.8685347E-001	-2.888963224228345E-001
-6.8568861E-001	-2.767472274930683E-001
-6.8471527E-001	-2.646933778499547E-001
-6.8377101E-001	-2.523570278038569E-001
-6.8258590E-001	-2.404237749479909E-001
-6.8176645E-001	-2.283365076614738E-001
-6.8072897E-001	-2.161404272817355E-001
-6.7976731E-001	-2.034862415171195E-001
-6.7883378E-001	-1.909818246063812E-001
-6.7770696E-001	-1.787440080402631E-001
-6.7668307E-001	-1.672845657304991E-001
-6.7568624E-001	-1.557064064674906E-001
-6.7481393E-001	-1.433472205643296E-001
-6.7378020E-001	-1.311385632087643E-001
-6.7269099E-001	-1.185933684378311E-001
-6.7170143E-001	-1.063697852746204E-001
-6.7079943E-001	-9.353731070155424E-002
-6.6977781E-001	-8.142913931428863E-002
-6.6867286E-001	-6.976844616993172E-002
-6.6788369E-001	-5.725082135364445E-002
-6.6680741E-001	-4.517560130571602E-002
-6.6571289E-001	-3.127391272632531E-002
-6.6453487E-001	-1.737076650407759E-002
-6.6343755E-001	-4.848110496688445E-003
-6.6232008E-001	7.278100932293613E-003
-6.6152608E-001	1.966870537122573E-002
-6.6042811E-001	3.183705032009779E-002
-6.5931094E-001	4.369442269315871E-002
-6.5835607E-001	5.578753246960266E-002
-6.5737134E-001	6.846170916429012E-002
-6.5637541E-001	8.012309811213880E-002
-6.5534425E-001	9.235647707936190E-002
-6.5434051E-001	1.040431556585073E-001
-6.5310562E-001	1.186080377187775E-001
-6.5216428E-001	1.310332124983825E-001
-6.5098989E-001	1.438772356379090E-001
-6.5011698E-001	1.561503005958800E-001
-6.4921886E-001	1.679163901997671E-001
-6.4804769E-001	1.799727239025136E-001
-6.4717811E-001	1.915569112958018E-001
-6.4602214E-001	2.037462803569658E-001
-6.4514226E-001	2.155222878618923E-001
-6.4423591E-001	2.278300736103143E-001
-6.4311433E-001	2.400119518516255E-001
-6.4200085E-001	2.519372044545083E-001
-6.4119482E-001	2.643248695460039E-001
-6.4005566E-001	2.763735901012456E-001
-6.3919395E-001	2.881653856624053E-001
-6.3810664E-001	3.003654773420598E-001
-6.3708925E-001	3.122029902275506E-001
-6.3608396E-001	3.242825615323257E-001
-6.3518310E-001	3.362326253589605E-001
-6.3420004E-001	3.480331288581637E-001
-6.3309723E-001	3.598277145582767E-001
-6.3201040E-001	3.719930039760649E-001
-6.3103282E-001	3.836994715793818E-001
-6.3003236E-001	3.955258825724881E-001
-6.2905246E-001	4.073446539197061E-001
-6.2818265E-001	4.195246257715759E-001
-6.2707472E-001	4.314210674966934E-001
-6.2608451E-001	4.434877464075235E-001
-6.2510318E-001	4.547043252322407E-001
-6.2403065E-001	4.668865327343887E-001
-6.2296766E-001	4.788759444868713E-001
-6.2204176E-001	4.904229703738743E-001
-6.2109375E-001	5.025882108343986E-001
-6.2016004E-001	5.144078786246435E-001
-6.1920178E-001	5.262551489803524E-001
-6.1809218E-001	5.378058006366091E-001
-6.1711127E-001	5.492851300563988E-001
-6.1600208E-001	5.606171930277775E-001
-6.1500716E-001	5.721872514160977E-001
-6.1412346E-001	5.838921478501042E-001
-6.1306196E-001	5.959048909307625E-001
-6.1220765E-001	6.083824797368855E-001
-6.1101454E-001	6.202321755527391E-001
-6.1005044E-001	6.321500439058863E-001
-6.0907298E-001	6.439376659478544E-001
-6.0804927E-001	6.554750241339220E-001
-6.0716379E-001	6.673933371073675E-001
-6.0606354E-001	6.788239384689945E-001
-6.0500413E-001	6.909089254008389E-001
-6.0413206E-001	7.019336808610858E-001
-6.0297775E-001	7.133592903910562E-001
-6.0208648E-001	7.255192169298752E-001
-6.0112894E-001	7.378547887697291E-001
-5.9996432E-001	7.491324282049874E-001
-5.9914345E-001	7.602622242713437E-001
-5.9805351E-001	7.719947213514002E-001
-5.9702933E-001	7.839710558784638E-001
-5.9603643E-001	7.958941807349476E-001
-5.9500784E-001	8.073748388776107E-001
-5.9413075E-001	8.189389330956125E-001
-5.9299773E-001	8.302313707492999E-001
-5.9203595E-001	8.423809131814402E-001
-5.9110069E-001	8.534640950718337E-001
-5.9002095E-001	8.653072910728330E-001
-5.8911574E-001	8.765975933659966E-001
-5.8806390E-001	8.893626773706025E-001
-5.8713239E-001	9.004788407021116E-001
-5.8603972E-001	9.113277883993263E-001
-5.8503616E-001	9.228653702295091E-001
-5.8398056E-001	9.345179972825246E-001
-5.8308119E-001	9.458349119457932E-001
-5.8202410E-001	9.580372144024434E-001
-5.8092600E-001	9.698300099483284E-001
-5.8009696E-001	9.817503377519259E-001
-5.7897449E-001	9.934218762399958E-001
-5.7801199E-001	1.004797928311203E+000
-5.7694644E-001	1.016598231400607E+000
-5.7604235E-001	1.027356628471773E+000
-5.7502347E-001	1.038780824453744E+000
-5.7406980E-001	1.050284041436742E+000
-5.7309359E-001	1.062322872416727E+000
-5.7202256E-001	1.072819126286995E+000
-5.7095236E-001	1.084320220406408E+000
-5.6996489E-001	1.097059181587163E+000
-5.6883258E-001	1.110580652676244E+000
-5.6788886E-001	1.121656861142164E+000
-5.6695569E-001	1.133080126372750E+000
-5.6592453E-001	1.144642983735714E+000
-5.6475610E-001	1.157393726135250E+000
-5.6391013E-001	1.168235408901070E+000
-5.6292802E-001	1.179746473966919E+000
-5.6183273E-001	1.190825233125511E+000
-5.6088012E-001	1.201556407743027E+000
-5.5987489E-001	1.213813641556985E+000
-5.5885702E-001	1.225145115328447E+000
-5.5787939E-001	1.236554350979898E+000
-5.5677253E-001	1.247747509291880E+000
-5.5588806E-001	1.258971132203129E+000
-5.5487460E-001	1.270238732436191E+000
-5.5380821E-001	1.282007686655831E+000
-5.5270815E-001	1.292460423276623E+000
-5.5193919E-001	1.304454240534039E+000
-5.5086595E-001	1.315555427085464E+000
-5.4985631E-001	1.327415831261990E+000
-5.4887331E-001	1.338081876988760E+000
-5.4792637E-001	1.349326753230010E+000
-5.4684699E-001	1.360479128656649E+000
-5.4582560E-001	1.371381413329531E+000
-5.4493326E-001	1.382155406944179E+000
-5.4380077E-001	1.393300492654728E+000
-5.4289007E-001	1.404359519619632E+000
-5.4189581E-001	1.416136447892139E+000
-5.4087234E-001	1.426374716271365E+000
-5.3977263E-001	1.437979517435579E+000
-5.3881443E-001	1.448892910309411E+000
-5.3796977E-001	1.460099362352761E+000
-5.3686368E-001	1.471601536014560E+000
-5.3581470E-001	1.482234414804868E+000
-5.3486782E-001	1.493462523218763E+000
-5.3386313E-001	1.504304167711072E+000
-5.3287548E-001	1.516069456383029E+000
-5.3182304E-001	1.526446635525147E+000
-5.3086561E-001	1.536891842191970E+000
-5.2984846E-001	1.547899792867682E+000
-5.2887893E-001	1.559113564164463E+000
-5.2786273E-001	1.570612650502614E+000
-5.2685148E-001	1.581451541019815E+000
-5.2589041E-001	1.592628572052357E+000
-5.2486706E-001	1.603544185283013E+000
-5.2386749E-001	1.614605869959910E+000
-5.2289063E-001	1.625557723282732E+000
-5.2184445E-001	1.636458747640803E+000
-5.2086169E-001	1.648210856649612E+000
-5.1981330E-001	1.658923100888977E+000
-5.1881224E-001	1.670461745725733E+000
-5.1784879E-001	1.681410151499293E+000
-5.1690358E-001	1.691952054524908E+000
-5.1583642E-001	1.703059727946926E+000
-5.1491845E-001	1.714438627991406E+000
-5.1390266E-001	1.726075417519823E+000
-5.1286787E-001	1.736830041640342E+000
-5.1180005E-001	1.747498937779000E+000
-5.1081967E-001	1.757742126434806E+000
-5.0985456E-001	1.769249126591063E+000
-5.0877738E-001	1.779892863121308E+000
-5.0787717E-001	1.790476752376108E+000
-5.0688964E-001	1.800995950345643E+000
-5.0586390E-001	1.811728181151214E+000
-5.0489360E-001	1.823438761962784E+000
-5.0391626E-001	1.833406066728958E+000
-5.0287658E-001	1.844204021257820E+000
-5.0189006E-001	1.854832360865906E+000
-5.0089222E-001	1.866009163083859E+000
-4.9984562E-001	1.876541353013510E+000
-4.9898389E-001	1.887268582703882E+000
-4.9777177E-001	1.897749611624963E+000
-4.9690947E-001	1.908184421389629E+000
-4.9585924E-001	1.919338938262728E+000
-4.9487585E-001	1.929338011200784E+000
-4.9382201E-001	1.940439752701941E+000
-4.9286020E-001	1.951265341429798E+000
-4.9192235E-001	1.962437408389869E+000
-4.9086297E-001	1.973417938503026E+000
-4.8986429E-001	1.983043030180312E+000
-4.8889112E-001	1.993733127911888E+000
-4.8792914E-001	2.005179187586959E+000
-4.8687482E-001	2.016152862873339E+000
-4.8579147E-001	2.025775594843758E+000
-4.8490927E-001	2.035725408826831E+000
-4.8388806E-001	2.046253164885218E+000
-4.8281765E-001	2.057312554231402E+000
-4.8186436E-001	2.067924755709626E+000
-4.8085445E-001	2.078564120387586E+000
-4.7987458E-001	2.088862628848450E+000
-4.7885600E-001	2.098748859670415E+000
-4.7781700E-001	2.109681822359557E+000
-4.7679153E-001	2.120036169610650E+000
-4.7586459E-001	2.130711964468553E+000
-4.7487712E-001	2.139903531582265E+000
-4.7385803E-001	2.149841271616808E+000
-4.7288153E-001	2.161322794431133E+000
-4.7188252E-001	2.170993096574597E+000
-4.7086045E-001	2.182198710739613E+000
-4.6985146E-001	2.192224524196876E+000
-4.6891803E-001	2.202958339894269E+000
-4.6779814E-001	2.213413429756951E+000
-4.6687451E-001	2.223311687743930E+000
-4.6592656E-001	2.234421750461616E+000
-4.6488142E-001	2.244845633153568E+000
-4.6377000E-001	2.256010767311607E+000
-4.6295089E-001	2.264990541670059E+000
-4.6191782E-001	2.275333340797161E+000
-4.6086663E-001	2.286484269399601E+000
-4.5978463E-001	2.296452691709554E+000
-4.5882306E-001	2.306888137978536E+000
-4.5784065E-001	2.316749105292445E+000
-4.5681617E-001	2.326464474201202E+000
-4.5590955E-001	2.336594365813117E+000
-4.5482004E-001	2.346373302874852E+000
-4.5383680E-001	2.356250117222459E+000
-4.5291981E-001	2.366486501086634E+000
-4.5187426E-001	2.376295318824209E+000
-4.5082244E-001	2.386426727252974E+000
-4.4988468E-001	2.397113253948866E+000
-4.4890529E-001	2.407356513487160E+000
-4.4784036E-001	2.417094978193447E+000
-4.4693822E-001	2.427223202530992E+000
-4.4592640E-001	2.437743909764979E+000
-4.4490963E-001	2.447434848105463E+000
-4.4387698E-001	2.457066816312295E+000
-4.4288573E-001	2.467988901212209E+000
-4.4183400E-001	2.477801783217323E+000
-4.4097632E-001	2.488727580644968E+000
-4.3985909E-001	2.498186085235192E+000
-4.3887144E-001	2.507844436499807E+000
-4.3784219E-001	2.517617237272674E+000
-4.3686807E-001	2.527866047289628E+000
-4.3585452E-001	2.538825309386954E+000
-4.3485752E-001	2.547750399537776E+000
-4.3392929E-001	2.558321260191777E+000
-4.3283749E-001	2.568397341778994E+000
-4.3190545E-001	2.579071118592225E+000
-4.3095291E-001	2.588793487460530E+000
-4.2995507E-001	2.597674638308870E+000
-4.2885578E-001	2.607680862959533E+000
-4.2793611E-001	2.617483191744054E+000
-4.2689240E-001	2.628057636596530E+000
-4.2593831E-001	2.636550853555502E+000
-4.2487907E-001	2.645894235206974E+000
-4.2384747E-001	2.655892106118021E+000
-4.2284843E-001	2.666202137819027E+000
-4.2184421E-001	2.675865866519791E+000
-4.2091972E-001	2.684847354337017E+000
-4.1991901E-001	2.694351253724015E+000
-4.1887823E-001	2.704978282252956E+000
-4.1781971E-001	2.714776227595628E+000
-4.1694310E-001	2.723985403520285E+000
-4.1586706E-001	2.733395658985330E+000
-4.1486731E-001	2.742524807651840E+000
-4.1390827E-001	2.752636146791282E+000
-4.1281667E-001	2.761227402974058E+000
-4.1187650E-001	2.770445123314853E+000
-4.1088319E-001	2.779954684014997E+000
-4.0991458E-001	2.789912775710775E+000
-4.0886641E-001	2.800080509097489E+000
-4.0783861E-001	2.809032329043688E+000
-4.0693542E-001	2.818685698840362E+000
-4.0590852E-001	2.828192994550420E+000
-4.0494049E-001	2.837660875846360E+000
-4.0386513E-001	2.847860424882832E+000
-4.0295193E-001	2.856666026016072E+000
-4.0175793E-001	2.865729069790879E+000
-4.0086818E-001	2.875138732018298E+000
-3.9994964E-001	2.885150772277981E+000
-3.9889312E-001	2.893672025264113E+000
-3.9790604E-001	2.902437107154611E+000
-3.9687741E-001	2.912408051943324E+000
-3.9590031E-001	2.921893896275975E+000
-3.9493772E-001	2.932139786857142E+000
-3.9389148E-001	2.940609563280034E+000
-3.9292762E-001	2.949032225499465E+000
-3.9194077E-001	2.958691918463614E+000
-3.9092281E-001	2.968273117310478E+000
-3.8990220E-001	2.976574269139213E+000
-3.8890374E-001	2.985781708525284E+000
-3.8789269E-001	2.994340376997432E+000
-3.8690659E-001	3.003726172427378E+000
-3.8589686E-001	3.013877412787201E+000
-3.8491726E-001	3.022106363541550E+000
-3.8385567E-001	3.030336775725679E+000
-3.8286340E-001	3.040081153865202E+000
-3.8193071E-001	3.049171830217048E+000
-3.8086694E-001	3.059202328686013E+000
-3.7988812E-001	3.068419161770073E+000
-3.7882555E-001	3.077185759941720E+000
-3.7791601E-001	3.085761514142895E+000
-3.7690115E-001	3.095964545453029E+000
-3.7591925E-001	3.105496074038527E+000
-3.7483886E-001	3.113579649760140E+000
-3.7391227E-001	3.122658166068568E+000
-3.7290868E-001	3.131601784243980E+000
-3.7187502E-001	3.140955594954661E+000
-3.7087396E-001	3.149131166714227E+000
-3.6996087E-001	3.157125398004418E+000
-3.6895785E-001	3.165139340140200E+000
-3.6784327E-001	3.175082302755790E+000
-3.6698821E-001	3.184377591001841E+000
-3.6591315E-001	3.192314785939686E+000
-3.6494076E-001	3.200946374071972E+000
-3.6391026E-001	3.210128207507019E+000
-3.6292809E-001	3.220231961320941E+000
-3.6193877E-001	3.228257769787746E+000
-3.6094722E-001	3.237451156134810E+000
-3.5987094E-001	3.245552373705095E+000
-3.5891277E-001	3.255133748054504E+000
-3.5798287E-001	3.264302981828197E+000
-3.5692894E-001	3.272311575434827E+000
-3.5585517E-001	3.280069276690476E+000
-3.5490733E-001	3.288757392392021E+000
-3.5388407E-001	3.298234784492735E+000
-3.5277295E-001	3.306086901713314E+000
-3.5200667E-001	3.314230858118563E+000
-3.5087141E-001	3.322723164050664E+000
-3.4997007E-001	3.331703965862594E+000
-3.4894422E-001	3.340633118908919E+000
-3.4792840E-001	3.347349659160336E+000
-3.4690335E-001	3.355436923879168E+000
-3.4584770E-001	3.364771232408145E+000
-3.4490958E-001	3.374183901482151E+000
-3.4389243E-001	3.382080634986906E+000
-3.4294102E-001	3.391217378495739E+000
-3.4197181E-001	3.399898039522002E+000
-3.4096614E-001	3.408170802725706E+000
-3.3994868E-001	3.416731996242731E+000
-3.3893672E-001	3.424292637794117E+000
-3.3786395E-001	3.432349732076684E+000
-3.3693296E-001	3.441055804659388E+000
-3.3591580E-001	3.449261230451089E+000
-3.3487594E-001	3.456944584846504E+000
-3.3392045E-001	3.464213055283821E+000
-3.3294749E-001	3.472312812451953E+000
-3.3187795E-001	3.480327163581503E+000
-3.3089030E-001	3.489417213926728E+000
-3.2988122E-001	3.496688303572157E+000
-3.2886490E-001	3.503996959439021E+000
-3.2787666E-001	3.513104038029411E+000
-3.2690591E-001	3.521700056614698E+000
-3.2592633E-001	3.529577597423845E+000
-3.2489297E-001	3.536491358934022E+000
-3.2395944E-001	3.543184168360852E+000
-3.2293826E-001	3.551298982567275E+000
-3.2187966E-001	3.559811522511346E+000
-3.2094976E-001	3.567312466325594E+000
-3.1995621E-001	3.574306257896965E+000
-3.1882343E-001	3.582289477339437E+000
-3.1792423E-001	3.590173164451571E+000
-3.1691363E-001	3.598605735434418E+000
-3.1591710E-001	3.605279319726883E+000
-3.1496254E-001	3.612973680098850E+000
-3.1386790E-001	3.620871945663758E+000
-3.1294367E-001	3.629975592792523E+000
-3.1194603E-001	3.637029762621253E+000
-3.1093460E-001	3.644251646818965E+000
-3.0995247E-001	3.651295258155194E+000
-3.0896461E-001	3.658699784565865E+000
-3.0788738E-001	3.668093551710115E+000
-3.0697101E-001	3.674157030052591E+000
-3.0600414E-001	3.681475772901813E+000
-3.0489302E-001	3.690205000257961E+000
-3.0392444E-001	3.697562223231361E+000
-3.0294675E-001	3.705719788869217E+000
-3.0191484E-001	3.711341615545162E+000
-3.0095786E-001	3.718411911416936E+000
-2.9992351E-001	3.724311242500931E+000
-2.9882893E-001	3.733355672365498E+000
-2.9793397E-001	3.740459659033350E+000
-2.9689986E-001	3.747552022337914E+000
-2.9595914E-001	3.754876860512265E+000
-2.9494298E-001	3.762139610118346E+000
-2.9386660E-001	3.769853245880881E+000
-2.9293224E-001	3.775721471004573E+000
-2.9195198E-001	3.782995655580802E+000
-2.9094028E-001	3.790827245072071E+000
-2.8989288E-001	3.798261529894347E+000
-2.8889439E-001	3.804795368402097E+000
-2.8796247E-001	3.811021235254074E+000
-2.8687543E-001	3.818427414119981E+000
-2.8583169E-001	3.825913707415264E+000
-2.8494284E-001	3.833161924172330E+000
-2.8392854E-001	3.840107394101771E+000
-2.8293973E-001	3.846644489853460E+000
-2.8192088E-001	3.852677014138962E+000
-2.8094316E-001	3.860490573615182E+000
-2.7989739E-001	3.867395304419389E+000
-2.7895468E-001	3.874531392697925E+000
-2.7784801E-001	3.880840919137739E+000
-2.7694586E-001	3.887034985754212E+000
-2.7590856E-001	3.894849173448719E+000
-2.7492261E-001	3.900152837303587E+000
-2.7396992E-001	3.905863139916363E+000
-2.7288893E-001	3.912513100990537E+000
-2.7200189E-001	3.920312859569862E+000
-2.7088878E-001	3.928457567537272E+000
-2.6993060E-001	3.934520521097706E+000
-2.6893398E-001	3.941187227964363E+000
-2.6787636E-001	3.947388750535474E+000
-2.6700324E-001	3.954952327741509E+000
-2.6592693E-001	3.960209631507873E+000
-2.6494983E-001	3.966860889284710E+000
-2.6395941E-001	3.973568957712924E+000
-2.6297182E-001	3.982513845644583E+000
-2.6197159E-001	3.990485921502109E+000
-2.6090840E-001	3.995659080920383E+000
-2.5986373E-001	4.001906883530063E+000
-2.5889912E-001	4.007625963952798E+000
-2.5792122E-001	4.015600047729635E+000
-2.5698009E-001	4.021108037551556E+000
-2.5591388E-001	4.026698425412150E+000
-2.5489265E-001	4.032105289123663E+000
-2.5393915E-001	4.039614125697113E+000
-2.5290650E-001	4.046873063400945E+000
-2.5193283E-001	4.052329426562345E+000
-2.5094977E-001	4.057621844845634E+000
-2.4990641E-001	4.062920424121401E+000
-2.4888097E-001	4.069202370113793E+000
-2.4798706E-001	4.075625334264956E+000
-2.4696271E-001	4.081645623953250E+000
-2.4589634E-001	4.086967065378481E+000
-2.4492969E-001	4.093011769119649E+000
-2.4396916E-001	4.099475753528097E+000
-2.4300161E-001	4.105404794623048E+000
-2.4197116E-001	4.111776946871366E+000
-2.4088423E-001	4.116862777758548E+000
-2.3993771E-001	4.123522334563880E+000
-2.3891355E-001	4.129693616871499E+000
-2.3794091E-001	4.134602054953579E+000
-2.3689865E-001	4.139808138877221E+000
-2.3594716E-001	4.146084463706728E+000
-2.3489393E-001	4.153539971620944E+000
-2.3393068E-001	4.157431588121810E+000
-2.3286517E-001	4.162621433536209E+000
-2.3187643E-001	4.167290806218439E+000
-2.3088253E-001	4.174196713621452E+000
-2.2995983E-001	4.181896173843636E+000
-2.2894141E-001	4.185376977478995E+000
-2.2800043E-001	4.190238861631947E+000
-2.2692814E-001	4.195370514083777E+000
-2.2592983E-001	4.202080824308979E+000
-2.2497761E-001	4.207148617139346E+000
-2.2393712E-001	4.211171511146738E+000
-2.2293144E-001	4.216774537607485E+000
-2.2188494E-001	4.220908492090771E+000
-2.2093935E-001	4.227961470131511E+000
-2.1998265E-001	4.232119654615730E+000
-2.1893783E-001	4.236252925768881E+000
-2.1801789E-001	4.241203666837123E+000
-2.1696325E-001	4.247559071139054E+000
-2.1590875E-001	4.253137266550098E+000
-2.1491237E-001	4.256515641455309E+000
-2.1399280E-001	4.262332851688079E+000
-2.1287504E-001	4.265569064991595E+000
-2.1194619E-001	4.273988745278775E+000
-2.1097086E-001	4.277027930926380E+000
-2.0978926E-001	4.281784670253515E+000
-2.0901693E-001	4.287134552443483E+000
-2.0788078E-001	4.292111984557593E+000
-2.0693751E-001	4.298175915779908E+000
-2.0591053E-001	4.302299130294053E+000
-2.0501278E-001	4.307079223570980E+000
-2.0385230E-001	4.310787637158857E+000
-2.0290428E-001	4.316098688377275E+000
-2.0196094E-001	4.322008464623366E+000
-2.0094292E-001	4.327170318854545E+000
-1.9987486E-001	4.330947457088389E+000
-1.9893917E-001	4.335471293992484E+000
-1.9791022E-001	4.340443173615284E+000
-1.9689980E-001	4.341566107339334E+000
-1.9598572E-001	4.346185563339105E+000
-1.9492279E-001	4.352944269572880E+000
-1.9394144E-001	4.359120974938094E+000
-1.9293278E-001	4.366451328551307E+000
-1.9194551E-001	4.366987622752717E+000
-1.9101152E-001	4.369818705099593E+000
-1.8995029E-001	4.373687799330114E+000
-1.8885621E-001	4.376542237476116E+000
-1.8796670E-001	4.379240556999488E+000
-1.8697923E-001	4.382025729726862E+000
-1.8596688E-001	4.384496676346982E+000
-1.8494514E-001	4.390231706477984E+000
-1.8400903E-001	4.394343005838209E+000
-1.8292886E-001	4.396972516476595E+000
-1.8190385E-001	4.400740785731216E+000
-1.8096603E-001	4.404566842096827E+000
-1.7993191E-001	4.409137133646887E+000
-1.7893703E-001	4.410973915899241E+000
-1.7794117E-001	4.414174556102098E+000
-1.7707372E-001	4.418836133899536E+000
-1.7594925E-001	4.422000289515196E+000
-1.7490591E-001	4.426941799763874E+000
-1.7400363E-001	4.427311749921898E+000
-1.7296225E-001	4.429452314972906E+000
-1.7188068E-001	4.432346976179304E+000
-1.7092353E-001	4.437366147284166E+000
-1.6997869E-001	4.440652830733207E+000
-1.6899601E-001	4.443131586967297E+000
-1.6792846E-001	4.444130797628993E+000
-1.6693890E-001	4.448561560776511E+000
-1.6597858E-001	4.453389320958678E+000
-1.6496210E-001	4.455246450172528E+000
-1.6386966E-001	4.457527299722045E+000
-1.6290464E-001	4.459480620532730E+000
-1.6191807E-001	4.464208937905482E+000
-1.6096583E-001	4.467847903017649E+000
-1.6001676E-001	4.468629775133373E+000
-1.5898053E-001	4.471949556359556E+000
-1.5792775E-001	4.475022867321982E+000
-1.5686482E-001	4.481078674745095E+000
-1.5597233E-001	4.483008790347313E+000
-1.5492019E-001	4.484036774546993E+000
-1.5403588E-001	4.486933734050178E+000
-1.5292215E-001	4.489768562493516E+000
-1.5200727E-001	4.494455494262553E+000
-1.5099306E-001	4.496227140900871E+000
-1.4997804E-001	4.497706502124110E+000
-1.4899337E-001	4.500178324955492E+000
-1.4806940E-001	4.504239716420486E+000
-1.4699130E-001	4.507185533642776E+000
-1.4593743E-001	4.509269671307656E+000
-1.4495997E-001	4.512027678971108E+000
-1.4398415E-001	4.516236172230151E+000
-1.4295219E-001	4.522071247299493E+000
-1.4196837E-001	4.522265059631835E+000
-1.4095034E-001	4.525868032265585E+000
-1.3997521E-001	4.529017121703546E+000
-1.3894716E-001	4.533360867952652E+000
-1.3790397E-001	4.534484517795079E+000
-1.3693455E-001	4.534327468386387E+000
-1.3592586E-001	4.537729415159859E+000
-1.3491954E-001	4.540667170175809E+000
-1.3395162E-001	4.546606608011096E+000
-1.3298264E-001	4.547711945916994E+000
-1.3200195E-001	4.550152837126376E+000
-1.3095021E-001	4.551000070792661E+000
-1.2995939E-001	4.554161869581307E+000
-1.2900224E-001	4.556331006465129E+000
-1.2793057E-001	4.557966209120242E+000
-1.2699048E-001	4.560457122149472E+000
-1.2599768E-001	4.562388884800477E+000
-1.2498053E-001	4.568114179703912E+000
-1.2405912E-001	4.567931753009901E+000
-1.2299631E-001	4.568710724512748E+000
-1.2197233E-001	4.569601672115155E+000
-1.2094517E-001	4.572384687524107E+000
-1.1995714E-001	4.576910962661106E+000
-1.1896417E-001	4.576671519213257E+000
-1.1801427E-001	4.578109837696545E+000
-1.1701471E-001	4.579610875359286E+000
-1.1600222E-001	4.584584618056269E+000
-1.1493862E-001	4.586707576701420E+000
-1.1405556E-001	4.586470660236149E+000
-1.1300546E-001	4.588828485663157E+000
-1.1192260E-001	4.590530933605301E+000
-1.1087193E-001	4.593675155330569E+000
-1.0994712E-001	4.593476910805805E+000
-1.0891717E-001	4.594948666515165E+000
-1.0796513E-001	4.595831026081683E+000
-1.0694423E-001	4.599555404054236E+000
-1.0596097E-001	4.601791387906784E+000
-1.0500003E-001	4.601742725129478E+000
-1.0402352E-001	4.603725105134473E+000
-1.0292608E-001	4.604802634429049E+000
-1.0207054E-001	4.608665153384209E+000
-1.0091050E-001	4.607925097603598E+000
-9.9950559E-002	4.608904839113916E+000
-9.8950557E-002	4.611525497502754E+000
-9.8052412E-002	4.613532535808029E+000
-9.7013220E-002	4.616904690861695E+000
-9.6028738E-002	4.616935329304795E+000
-9.5047988E-002	4.617464079471234E+000
-9.3909152E-002	4.619006711575722E+000
-9.2994243E-002	4.621365662526223E+000
-9.1965385E-002	4.622289327750025E+000
-9.0982221E-002	4.623791069344222E+000
-8.9987151E-002	4.623466951979536E+000
-8.9026406E-002	4.626713396076838E+000
-8.8084146E-002	4.629070757715796E+000
-8.6965583E-002	4.627947201331452E+000
-8.5983656E-002	4.628330350174210E+000
-8.4995151E-002	4.629848150191506E+000
-8.3968222E-002	4.632837643777876E+000
-8.2971588E-002	4.633268830347673E+000
-8.1993558E-002	4.632465272038054E+000
-8.1006721E-002	4.634171584138151E+000
-7.9985932E-002	4.636650677503553E+000
-7.8985140E-002	4.641413137316690E+000
-7.8056023E-002	4.638164454036307E+000
-7.6985665E-002	4.639230673012126E+000
-7.6032333E-002	4.640833230482201E+000
-7.4940749E-002	4.643027429227473E+000
-7.4046262E-002	4.644752168752746E+000
-7.3017567E-002	4.645250807205846E+000
-7.2043918E-002	4.644244591395058E+000
-7.1072593E-002	4.645278342290169E+000
-6.9958717E-002	4.650077241990289E+000
-6.9001995E-002	4.649375301820243E+000
-6.8011887E-002	4.649901453300160E+000
-6.7029640E-002	4.650077666949315E+000
-6.5957747E-002	4.652458077779521E+000
-6.5006137E-002	4.654451017551978E+000
-6.4037390E-002	4.652767201264682E+000
-6.3005812E-002	4.654190619234690E+000
-6.1996404E-002	4.653624128702397E+000
-6.0936481E-002	4.657535626932436E+000
-6.0004622E-002	4.657317492145069E+000
-5.9085865E-002	4.657464638197041E+000
-5.7954423E-002	4.659056189435497E+000
-5.7053290E-002	4.657881738411059E+000
-5.6038465E-002	4.663328754362617E+000
-5.5016018E-002	4.661880000321958E+000
-5.3991232E-002	4.661920614264623E+000
-5.2997064E-002	4.663285283430801E+000
-5.2090771E-002	4.666762221742559E+000
-5.1005125E-002	4.667605358693333E+000
-5.0027844E-002	4.665887955858139E+000
-4.9039122E-002	4.667281519483623E+000
-4.8015185E-002	4.668438919164509E+000
-4.6954323E-002	4.672180109337901E+000
-4.5996364E-002	4.668886332048302E+000
-4.4986978E-002	4.670274661170140E+000
-4.4031646E-002	4.669848522654306E+000
-4.2991374E-002	4.671893673362561E+000
-4.2058703E-002	4.675936095344639E+000
-4.1098770E-002	4.674018770456314E+000
-4.0017974E-002	4.673619170431742E+000
-3.8993254E-002	4.674468168658336E+000
-3.8013369E-002	4.678363868483814E+000
-3.7040774E-002	4.678379972223897E+000
-3.6059450E-002	4.676097876309481E+000
-3.5068594E-002	4.677092053823991E+000
-3.4023687E-002	4.676949502693271E+000
-3.3081785E-002	4.681633616845502E+000
-3.2083977E-002	4.678140077877934E+000
-3.0928317E-002	4.678529414865707E+000
-3.0073369E-002	4.679145017463171E+000
-2.9099327E-002	4.680908762746391E+000
-2.7952584E-002	4.680717796639172E+000
-2.6998408E-002	4.681214192268868E+000
-2.6056595E-002	4.684455485255640E+000
-2.4994895E-002	4.690776349769717E+000
-2.4056703E-002	4.697227838168814E+000
-2.3054333E-002	4.700325587281483E+000
-2.2088544E-002	4.702560282967738E+000
-2.0960893E-002	4.704264561573815E+000
-2.0069493E-002	4.705333339947238E+000
-1.9107714E-002	4.705497875257763E+000
-1.8027930E-002	4.704026189063697E+000
-1.7095907E-002	4.704150570763474E+000
-1.6069219E-002	4.704245031431856E+000
-1.5101906E-002	4.707128164760015E+000
-1.4040430E-002	4.704954584439594E+000
-1.2980422E-002	4.704469343026460E+000
-1.2005159E-002	4.705115363712228E+000
-1.1021848E-002	4.705741025231518E+000
-1.0072581E-002	4.706286778052643E+000
-9.0496056E-003	4.705667165229684E+000
-8.0762561E-003	4.705055876462552E+000
-7.0730969E-003	4.706938335189129E+000
-6.1210883E-003	4.707483681476461E+000
-5.0659482E-003	4.707272510285753E+000
-4.1966443E-003	4.706637358775836E+000
-3.0376550E-003	4.706574410441565E+000
-2.0524706E-003	4.705551044256630E+000
-1.0711699E-003	4.710416756294386E+000
-9.5047799E-006	4.707719864733228E+000
1.0405666E-003	4.706439964749191E+000
1.9495240E-003	4.709013780509949E+000
2.9410925E-003	4.710884410637732E+000
4.0127276E-003	4.710272727189242E+000
4.9778777E-003	4.709436913331361E+000
5.9724771E-003	4.710395306966371E+000
6.6906051E-003	4.711695810159043E+000
6.7325910E-003	4.711052417755127E+000