EC-Lab ASCII FILE
Nb header lines : 63                          

Linear Sweep Voltammetry

Run on channel : 6 (SN 13765)
User : 
Electrode connection : standard
Potential control : Ewe
Ewe ctrl range : min = -2.50 V, max = 2.50 V
Ewe,I filtering : <None>
Safety Limits :
	Do not start on E overload
Channel : Floating
Acquisition started on : 07/13/2026 15:14:01.118
Technique started on : 07/13/2026 15:14:02.115
Loaded Setting File :  C:\Users\EEM-620\Desktop\Wade\20260630\LSV 1mg MoS2 1_C06.mpr
Saved on :
	File : N719_0713-a-1_C06.mpr
	Directory : C:\Users\EEM-620\Desktop\Wade\abao\20260713\
	Host : 192.109.209.200
Device : VSP-300 (SN 0025)
Address : 192.109.209.129
EC-LAB for windows v11.62 (software)
Internet server v27.00 (firmware)
Command interpretor v12.02 (firmware)
Electrode material : Au/Pd
Initial state : 
Electrolyte : NaCl (0.2M)
Comments : Fe(CN)63-/Fe(CN)64- 5.10-3 M
Cable : ULC
Reference electrode : SCE Saturated Calomel Electrode (0.241 V)
Electrode surface area : 0.001 cm2
Characteristic mass : 0.001 g
Equivalent Weight : 0.000 g/eq.
Density : 0.000 g/cm3
Volume (V) : 0.001 cm3
Cycle Definition : Charge/Discharge alternance
tR (h:m:s)          0:00:5.0000         
dER/dt (mV/h)       0.0                 
dER (mV)            0                   
dtR (s)             0.0500              
dE/dt               10.000              
dE/dt unit          mV/s                
Ei (V)              -0.800              
vs.                 Ref                 
EL (V)              0.010               
vs.                 Ref                 
record              <I>                 
dI                  0.000               
unit dI             uA                  
tI (s)              0.0000              
step percent        50                  
N                   10                  
E range min (V)     -2.500              
E range max (V)     2.500               
I Range             Auto                
I Range min         Unset               
I Range max         Unset               
I Range init        Unset               
Bandwidth           8                   

Ewe/V	<I>/mA	
-5.8460343E-001	0.000000000000000E+000
-5.8485538E-001	0.000000000000000E+000
-5.8456141E-001	0.000000000000000E+000
-5.8456522E-001	0.000000000000000E+000
-5.8464539E-001	0.000000000000000E+000
-5.8475614E-001	0.000000000000000E+000
-5.8469886E-001	0.000000000000000E+000
-5.8449268E-001	0.000000000000000E+000
-5.8474469E-001	0.000000000000000E+000
-5.8470649E-001	0.000000000000000E+000
-5.8484393E-001	0.000000000000000E+000
-5.8471411E-001	0.000000000000000E+000
-5.8457285E-001	0.000000000000000E+000
-5.8457667E-001	0.000000000000000E+000
-5.8453846E-001	0.000000000000000E+000
-5.8480197E-001	0.000000000000000E+000
-5.8457667E-001	0.000000000000000E+000
-5.8452702E-001	0.000000000000000E+000
-5.8474851E-001	0.000000000000000E+000
-5.8461869E-001	0.000000000000000E+000
-5.8465302E-001	0.000000000000000E+000
-5.8421391E-001	0.000000000000000E+000
-5.8467978E-001	0.000000000000000E+000
-5.8487070E-001	0.000000000000000E+000
-5.8462250E-001	0.000000000000000E+000
-5.8454990E-001	0.000000000000000E+000
-5.8472943E-001	0.000000000000000E+000
-5.8477902E-001	0.000000000000000E+000
-5.8467215E-001	0.000000000000000E+000
-5.8454990E-001	0.000000000000000E+000
-5.8487445E-001	0.000000000000000E+000
-5.8478665E-001	0.000000000000000E+000
-5.8428645E-001	0.000000000000000E+000
-5.8451176E-001	0.000000000000000E+000
-5.8454609E-001	0.000000000000000E+000
-5.8474463E-001	0.000000000000000E+000
-5.8497763E-001	0.000000000000000E+000
-5.8463776E-001	0.000000000000000E+000
-5.8473700E-001	0.000000000000000E+000
-5.8476377E-001	0.000000000000000E+000
-5.8458048E-001	0.000000000000000E+000
-5.8467215E-001	0.000000000000000E+000
-5.8479810E-001	0.000000000000000E+000
-5.8491266E-001	0.000000000000000E+000
-5.8471411E-001	0.000000000000000E+000
-5.8440483E-001	0.000000000000000E+000
-5.8478284E-001	0.000000000000000E+000
-5.8469123E-001	0.000000000000000E+000
-5.8479434E-001	0.000000000000000E+000
-5.8502340E-001	0.000000000000000E+000
-5.8479428E-001	0.000000000000000E+000
-5.8475226E-001	0.000000000000000E+000
-5.8460337E-001	0.000000000000000E+000
-5.8458811E-001	0.000000000000000E+000
-5.8461481E-001	0.000000000000000E+000
-5.8461100E-001	0.000000000000000E+000
-5.8490884E-001	0.000000000000000E+000
-5.8456141E-001	0.000000000000000E+000
-5.8468360E-001	0.000000000000000E+000
-5.8451939E-001	0.000000000000000E+000
-5.8458811E-001	0.000000000000000E+000
-5.8977336E-001	0.000000000000000E+000
-5.8936864E-001	0.000000000000000E+000
-7.8917986E-001	-2.357941446097005E+000
-7.8872216E-001	-2.344579154388825E+000
-7.8772825E-001	-2.323906656492638E+000
-7.8672469E-001	-2.305321164429174E+000
-7.8571510E-001	-2.287956898896894E+000
-7.8469414E-001	-2.271899754250494E+000
-7.8377926E-001	-2.256463063811808E+000
-7.8280514E-001	-2.241350336896204E+000
-7.8175664E-001	-2.226997344858116E+000
-7.8076369E-001	-2.213010383424930E+000
-7.7975374E-001	-2.199074234267179E+000
-7.7868307E-001	-2.185572680223871E+000
-7.7780592E-001	-2.172420803871425E+000
-7.7682602E-001	-2.159415884487721E+000
-7.7579856E-001	-2.146428748689310E+000
-7.7477974E-001	-2.133695298046980E+000
-7.7376342E-001	-2.120962900781482E+000
-7.7277774E-001	-2.107829150226387E+000
-7.7185023E-001	-2.095391274050410E+000
-7.7077425E-001	-2.083188054793909E+000
-7.6974010E-001	-2.070335405844229E+000
-7.6881945E-001	-2.057486128475936E+000
-7.6778102E-001	-2.044943870650648E+000
-7.6676852E-001	-2.032651476562023E+000
-7.6573557E-001	-2.020183843870957E+000
-7.6476753E-001	-2.008192729953418E+000
-7.6375061E-001	-1.995716721371362E+000
-7.6279074E-001	-1.983259509283087E+000
-7.6181877E-001	-1.970886744522819E+000
-7.6080775E-001	-1.958841002925684E+000
-7.5968790E-001	-1.946539590480150E+000
-7.5883877E-001	-1.933824179373110E+000
-7.5776172E-001	-1.922015734292842E+000
-7.5682294E-001	-1.909559005664455E+000
-7.5580263E-001	-1.897251906866224E+000
-7.5480324E-001	-1.884856318434073E+000
-7.5380898E-001	-1.873018488320627E+000
-7.5276542E-001	-1.860635793043507E+000
-7.5178385E-001	-1.848385308627728E+000
-7.5078285E-001	-1.836364656278182E+000
-7.4973363E-001	-1.824311553880015E+000
-7.4879485E-001	-1.812053365563902E+000
-7.4783528E-001	-1.800353062151027E+000
-7.4681306E-001	-1.787923075534678E+000
-7.4575973E-001	-1.775777434861212E+000
-7.4482495E-001	-1.763635728577128E+000
-7.4371642E-001	-1.751665968861849E+000
-7.4278915E-001	-1.739770763450198E+000
-7.4178302E-001	-1.727632813652498E+000
-7.4076915E-001	-1.715573955741192E+000
-7.3990387E-001	-1.703525591503688E+000
-7.3876345E-001	-1.691510961386790E+000
-7.3786056E-001	-1.680016464381307E+000
-7.3678768E-001	-1.667834797115233E+000
-7.3580801E-001	-1.655965398552048E+000
-7.3479080E-001	-1.644204337287832E+000
-7.3378372E-001	-1.632161261582817E+000
-7.3283929E-001	-1.620347556507273E+000
-7.3186105E-001	-1.608364093634808E+000
-7.3086387E-001	-1.596404520725763E+000
-7.2987628E-001	-1.584567620186327E+000
-7.2881943E-001	-1.572617363874546E+000
-7.2784787E-001	-1.560838419806082E+000
-7.2686416E-001	-1.548936548037304E+000
-7.2582823E-001	-1.537239315057238E+000
-7.2480506E-001	-1.525438830532408E+000
-7.2378862E-001	-1.513769483163754E+000
-7.2284842E-001	-1.501906543556183E+000
-7.2180849E-001	-1.489720165729523E+000
-7.2081584E-001	-1.478455750987436E+000
-7.1985275E-001	-1.466261630256971E+000
-7.1886927E-001	-1.454422104551835E+000
-7.1783209E-001	-1.442473597029995E+000
-7.1679699E-001	-1.430917445984150E+000
-7.1576631E-001	-1.419041220098741E+000
-7.1487653E-001	-1.407180827568293E+000
-7.1384066E-001	-1.395482410435321E+000
-7.1280819E-001	-1.383793495043566E+000
-7.1188694E-001	-1.371960868874092E+000
-7.1086192E-001	-1.359886768515461E+000
-7.0983392E-001	-1.348417754388517E+000
-7.0886755E-001	-1.336723843393852E+000
-7.0785099E-001	-1.325166431290128E+000
-7.0685828E-001	-1.313584421381906E+000
-7.0582920E-001	-1.301999418170826E+000
-7.0488948E-001	-1.290476809911150E+000
-7.0388383E-001	-1.278836491897148E+000
-7.0289779E-001	-1.267293969027556E+000
-7.0181388E-001	-1.255443953943468E+000
-7.0076627E-001	-1.244072819887482E+000
-6.9986051E-001	-1.232474457260815E+000
-6.9884026E-001	-1.220911148797581E+000
-6.9777906E-001	-1.209253040314820E+000
-6.9682968E-001	-1.197682523593047E+000
-6.9580257E-001	-1.186162701497476E+000
-6.9478905E-001	-1.174495258816972E+000
-6.9380748E-001	-1.163096049365599E+000
-6.9289666E-001	-1.151649467509100E+000
-6.9189245E-001	-1.140300629177577E+000
-6.9083095E-001	-1.128671908598163E+000
-6.8979967E-001	-1.117053773116185E+000
-6.8885398E-001	-1.105949073969319E+000
-6.8780136E-001	-1.094281096563293E+000
-6.8685186E-001	-1.082909552725379E+000
-6.8583679E-001	-1.072039738537951E+000
-6.8485206E-001	-1.060348401742949E+000
-6.8379194E-001	-1.048676143641829E+000
-6.8288654E-001	-1.037344834469467E+000
-6.8187809E-001	-1.026133671678878E+000
-6.8082619E-001	-1.014963512757313E+000
-6.7983752E-001	-1.003347952990101E+000
-6.7883831E-001	-9.920390056515167E-001
-6.7789036E-001	-9.806048544468737E-001
-6.7681766E-001	-9.693813370825417E-001
-6.7587686E-001	-9.580163966726389E-001
-6.7483890E-001	-9.464937153237809E-001
-6.7386621E-001	-9.353022009391840E-001
-6.7283213E-001	-9.241195917129529E-001
-6.7181993E-001	-9.130052075617847E-001
-6.7077476E-001	-9.015950471086311E-001
-6.6979998E-001	-8.902648470743948E-001
-6.6879511E-001	-8.790638402656277E-001
-6.6776687E-001	-8.682346337518969E-001
-6.6682053E-001	-8.574790724173766E-001
-6.6585553E-001	-8.457259183956527E-001
-6.6476381E-001	-8.345635002646410E-001
-6.6385937E-001	-8.235050780629667E-001
-6.6282696E-001	-8.123161249138691E-001
-6.6185212E-001	-8.010984097282245E-001
-6.6085225E-001	-7.898264808787232E-001
-6.5981048E-001	-7.790351677685958E-001
-6.5881896E-001	-7.678266523910295E-001
-6.5781963E-001	-7.571602600316227E-001
-6.5680718E-001	-7.460712004039003E-001
-6.5583056E-001	-7.346487702751752E-001
-6.5479809E-001	-7.238858714699710E-001
-6.5376717E-001	-7.127276670049754E-001
-6.5279222E-001	-7.017918071845131E-001
-6.5178168E-001	-6.905645076185469E-001
-6.5089351E-001	-6.796549111604708E-001
-6.4976490E-001	-6.687228150950983E-001
-6.4879370E-001	-6.579317553313775E-001
-6.4774114E-001	-6.472847508611510E-001
-6.4686835E-001	-6.363374574817471E-001
-6.4580435E-001	-6.251823879364455E-001
-6.4484131E-001	-6.144488326929221E-001
-6.4375496E-001	-6.031328606761992E-001
-6.4285308E-001	-5.924702288789855E-001
-6.4181536E-001	-5.813649251919095E-001
-6.4076316E-001	-5.705181181608516E-001
-6.3978082E-001	-5.596886964997738E-001
-6.3884974E-001	-5.492169327206078E-001
-6.3776910E-001	-5.377786922249364E-001
-6.3683629E-001	-5.272845774199144E-001
-6.3586789E-001	-5.163745397218955E-001
-6.3482666E-001	-5.059446507726921E-001
-6.3383061E-001	-4.952672468843291E-001
-6.3290453E-001	-4.847805333082320E-001
-6.3186532E-001	-4.737504114210230E-001
-6.3083965E-001	-4.630509508014846E-001
-6.2981910E-001	-4.528944791743035E-001
-6.2868702E-001	-4.411867380362686E-001
-6.2764800E-001	-4.294111387183266E-001
-6.2657404E-001	-4.188039434285464E-001
-6.2560642E-001	-4.080422046697798E-001
-6.2470663E-001	-3.974033217463226E-001
-6.2350285E-001	-3.869929356994533E-001
-6.2256926E-001	-3.768331163252392E-001
-6.2165302E-001	-3.661939377241108E-001
-6.2056774E-001	-3.560170209719051E-001
-6.1972481E-001	-3.450191990575862E-001
-6.1859542E-001	-3.343255309801974E-001
-6.1753178E-001	-3.241740486925411E-001
-6.1654735E-001	-3.133035305611498E-001
-6.1563116E-001	-3.030111526518509E-001
-6.1455148E-001	-2.928181973958353E-001
-6.1352837E-001	-2.824209612552756E-001
-6.1257708E-001	-2.718932038104099E-001
-6.1148685E-001	-2.616170858351978E-001
-6.1052191E-001	-2.513969495409611E-001
-6.0952824E-001	-2.410298937034829E-001
-6.0851628E-001	-2.308334557048915E-001
-6.0755229E-001	-2.202343345033344E-001
-6.0656148E-001	-2.103702860918861E-001
-6.0553336E-001	-1.997598166689070E-001
-6.0471684E-001	-1.896793986153270E-001
-6.0353613E-001	-1.797289897308305E-001
-6.0261136E-001	-1.691649590560680E-001
-6.0155481E-001	-1.592810135334730E-001
-6.0069734E-001	-1.490041726372300E-001
-5.9954029E-001	-1.386401082637754E-001
-5.9860200E-001	-1.287414608178317E-001
-5.9749132E-001	-1.185015477929947E-001
-5.9646654E-001	-1.088838708484904E-001
-5.9556985E-001	-9.840824719759844E-002
-5.9449756E-001	-8.861492353456990E-002
-5.9352911E-001	-7.875812269972982E-002
-5.9245121E-001	-6.820767276264972E-002
-5.9167880E-001	-5.870276868032875E-002
-5.9061450E-001	-4.849129817707210E-002
-5.8940518E-001	-3.714966263939568E-002
-5.8835083E-001	-2.598924938076814E-002
-5.8720398E-001	-1.569993630443983E-002
-5.8627951E-001	-6.231904997548551E-003
-5.8528882E-001	3.906664304904467E-003
-5.8430946E-001	1.329203928859601E-002
-5.8329678E-001	2.337584156689609E-002
-5.8230042E-001	3.325016924029134E-002
-5.8125061E-001	4.305257403757412E-002
-5.8019972E-001	5.278850614127728E-002
-5.7923394E-001	6.307208035648948E-002
-5.7824993E-001	7.242084797299264E-002
-5.7721978E-001	8.213121198221174E-002
-5.7622832E-001	9.189511355549151E-002
-5.7514012E-001	1.020220713000055E-001
-5.7410771E-001	1.117224646503787E-001
-5.7297862E-001	1.234219922607891E-001
-5.7202226E-001	1.327764345677918E-001
-5.7092065E-001	1.424274783305548E-001
-5.6993508E-001	1.518000783179603E-001
-5.6895018E-001	1.615294828941984E-001
-5.6797040E-001	1.708189955119184E-001
-5.6693894E-001	1.802376446938130E-001
-5.6594056E-001	1.894615090590106E-001
-5.6496072E-001	1.994530043081841E-001
-5.6399339E-001	2.094501125888728E-001
-5.6297839E-001	2.181119405216099E-001
-5.6204164E-001	2.271519410941334E-001
-5.6102341E-001	2.362935960190822E-001
-5.5996704E-001	2.453645443957717E-001
-5.5899531E-001	2.546979223067565E-001
-5.5801839E-001	2.641991904851242E-001
-5.5695295E-001	2.735321841168188E-001
-5.5603439E-001	2.824450738866025E-001
-5.5496806E-001	2.919843412797762E-001
-5.5391479E-001	3.009223277784052E-001
-5.5292910E-001	3.101079074872857E-001
-5.5195582E-001	3.192642683961138E-001
-5.5091679E-001	3.284601197681503E-001
-5.5000734E-001	3.374512449618385E-001
-5.4898310E-001	3.468010215157715E-001
-5.4790926E-001	3.555422833327313E-001
-5.4694265E-001	3.645737726845701E-001
-5.4599887E-001	3.730866438881666E-001
-5.4503500E-001	3.821062036548515E-001
-5.4389352E-001	3.913279834842309E-001
-5.4297292E-001	4.000586894927212E-001
-5.4192960E-001	4.088954976587384E-001
-5.4105800E-001	4.176569459638504E-001
-5.3998846E-001	4.263052856894545E-001
-5.3896981E-001	4.352674627745596E-001
-5.3781748E-001	4.436955630927413E-001
-5.3691685E-001	4.526807312612178E-001
-5.3588080E-001	4.611960563256767E-001
-5.3495461E-001	4.696261994250914E-001
-5.3394789E-001	4.787549572410423E-001
-5.3297937E-001	4.869163933175591E-001
-5.3199601E-001	4.954002036109930E-001
-5.3100890E-001	5.040170706946583E-001
-5.3002405E-001	5.125135685558675E-001
-5.2893931E-001	5.209017192391077E-001
-5.2795029E-001	5.294018896227630E-001
-5.2692312E-001	5.380185053994246E-001
-5.2593666E-001	5.467458328739658E-001
-5.2480149E-001	5.543129472406925E-001
-5.2400875E-001	5.630506286742502E-001
-5.2292043E-001	5.710761155098041E-001
-5.2190125E-001	5.795854923349842E-001
-5.2102256E-001	5.879544215621788E-001
-5.2005523E-001	5.963265258630210E-001
-5.1886463E-001	6.042085328587787E-001
-5.1800591E-001	6.124174439658727E-001
-5.1681894E-001	6.207274038870452E-001
-5.1597303E-001	6.285110003556378E-001
-5.1486772E-001	6.367073042525200E-001
-5.1387793E-001	6.448032896497877E-001
-5.1285988E-001	6.526721637972015E-001
-5.1186264E-001	6.607849509627712E-001
-5.1086128E-001	6.688977044060938E-001
-5.0996077E-001	6.761417295783749E-001
-5.0891799E-001	6.847919287780924E-001
-5.0784296E-001	6.924842012208807E-001
-5.0691777E-001	7.001587240784257E-001
-5.0585628E-001	7.080035821569196E-001
-5.0498348E-001	7.155200227708345E-001
-5.0386697E-001	7.233587888379880E-001
-5.0285089E-001	7.312693944959747E-001
-5.0197470E-001	7.390379498837074E-001
-5.0088090E-001	7.463757784140306E-001
-4.9996763E-001	7.543266080319881E-001
-4.9893075E-001	7.610683831575074E-001
-4.9787185E-001	7.689838311462500E-001
-4.9690661E-001	7.766877580434102E-001
-4.9579832E-001	7.840527025514064E-001
-4.9488801E-001	7.913865854066842E-001
-4.9400768E-001	7.988462036958435E-001
-4.9294683E-001	8.064365421876247E-001
-4.9188533E-001	8.136027222154301E-001
-4.9092507E-001	8.210814843575172E-001
-4.8993146E-001	8.279538082855731E-001
-4.8891646E-001	8.354659221238574E-001
-4.8794913E-001	8.428338864790970E-001
-4.8690611E-001	8.498296948770658E-001
-4.8590145E-001	8.566191698665957E-001
-4.8497549E-001	8.642578791720066E-001
-4.8399144E-001	8.715589888117918E-001
-4.8288733E-001	8.788560081135373E-001
-4.8199481E-001	8.851594600155153E-001
-4.8090628E-001	8.925433091267378E-001
-4.7995809E-001	8.995010644473425E-001
-4.7890726E-001	9.064994827524941E-001
-4.7794604E-001	9.133849515131196E-001
-4.7695690E-001	9.200519266779801E-001
-4.7592676E-001	9.270343686419134E-001
-4.7501019E-001	9.339616609116401E-001
-4.7404015E-001	9.406800471522203E-001
-4.7289687E-001	9.475168864812744E-001
-4.7188619E-001	9.535905547715977E-001
-4.7095752E-001	9.599206025401745E-001
-4.6996900E-001	9.667812931301132E-001
-4.6897712E-001	9.740076478984605E-001
-4.6787870E-001	9.807292701745505E-001
-4.6690002E-001	9.869564512302027E-001
-4.6604297E-001	9.939514045362117E-001
-4.6493018E-001	1.000092605473816E+000
-4.6382558E-001	1.006263973042218E+000
-4.6286786E-001	1.013101088090075E+000
-4.6177113E-001	1.018948927797654E+000
-4.6084154E-001	1.025558229665801E+000
-4.5986667E-001	1.032292972284337E+000
-4.5895898E-001	1.038917796479332E+000
-4.5804536E-001	1.044925129343188E+000
-4.5685568E-001	1.051113278087644E+000
-4.5587993E-001	1.058007482853197E+000
-4.5482966E-001	1.063885609273285E+000
-4.5390138E-001	1.069542918354269E+000
-4.5288342E-001	1.075780778571414E+000
-4.5189583E-001	1.081322156355064E+000
-4.5092121E-001	1.087645254753248E+000
-4.4982454E-001	1.093901517490548E+000
-4.4877279E-001	1.101183987484999E+000
-4.4773892E-001	1.107466495147460E+000
-4.4664368E-001	1.114067551990354E+000
-4.4578248E-001	1.120344386008624E+000
-4.4469491E-001	1.125877998079421E+000
-4.4368324E-001	1.132367290694408E+000
-4.4269454E-001	1.137005427759288E+000
-4.4163084E-001	1.142547521326279E+000
-4.4067672E-001	1.149111356826104E+000
-4.3963948E-001	1.154788409256273E+000
-4.3870777E-001	1.160132925129599E+000
-4.3770814E-001	1.166396266227097E+000
-4.3668112E-001	1.172336972422070E+000
-4.3568900E-001	1.177982078244288E+000
-4.3471289E-001	1.183382156161234E+000
-4.3372151E-001	1.188715089802391E+000
-4.3264094E-001	1.193748604920178E+000
-4.3170497E-001	1.199377523400344E+000
-4.3070039E-001	1.205269476467816E+000
-4.2969319E-001	1.210809261848524E+000
-4.2869759E-001	1.216081043225870E+000
-4.2768374E-001	1.222068337240707E+000
-4.2673129E-001	1.227454541320057E+000
-4.2567790E-001	1.232760437957432E+000
-4.2475763E-001	1.238563872735810E+000
-4.2370018E-001	1.242798904439915E+000
-4.2273456E-001	1.247463496711834E+000
-4.2169535E-001	1.253083938525780E+000
-4.2062840E-001	1.259280003193364E+000
-4.1961911E-001	1.263933697602795E+000
-4.1870782E-001	1.269584211900277E+000
-4.1770104E-001	1.273977901924544E+000
-4.1660288E-001	1.279672241284095E+000
-4.1558418E-001	1.284714471962718E+000
-4.1465783E-001	1.289859448180152E+000
-4.1364446E-001	1.295237765135317E+000
-4.1268700E-001	1.298794603044239E+000
-4.1167825E-001	1.304671845502320E+000
-4.1067302E-001	1.310038288129647E+000
-4.0971461E-001	1.315346109370392E+000
-4.0868711E-001	1.319708336006712E+000
-4.0765002E-001	1.325096944152648E+000
-4.0674123E-001	1.330363528734010E+000
-4.0573004E-001	1.334805881121646E+000
-4.0466461E-001	1.339283144962991E+000
-4.0365607E-001	1.344405081537035E+000
-4.0265864E-001	1.348660197798850E+000
-4.0177417E-001	1.353684750850178E+000
-4.0065870E-001	1.358172163643218E+000
-3.9971387E-001	1.363142735842207E+000
-3.9874929E-001	1.368522048453456E+000
-3.9766553E-001	1.373200092188746E+000
-3.9670587E-001	1.377765539481683E+000
-3.9574376E-001	1.381842283875265E+000
-3.9471591E-001	1.386764303401664E+000
-3.9371043E-001	1.391157064724855E+000
-3.9270914E-001	1.395170968749195E+000
-3.9171070E-001	1.400290518447207E+000
-3.9069381E-001	1.405014933811291E+000
-3.8979983E-001	1.409275604529618E+000
-3.8874599E-001	1.414645999256102E+000
-3.8774523E-001	1.419685924218758E+000
-3.8669291E-001	1.424350566856852E+000
-3.8566998E-001	1.427716356598669E+000
-3.8469332E-001	1.432172146384360E+000
-3.8369632E-001	1.436181372915669E+000
-3.8271078E-001	1.440598389202794E+000
-3.8166609E-001	1.445302305950058E+000
-3.8065296E-001	1.450418776886536E+000
-3.7968206E-001	1.454868015177830E+000
-3.7872005E-001	1.459208579940928E+000
-3.7768784E-001	1.463698798997534E+000
-3.7667981E-001	1.467273553350459E+000
-3.7571821E-001	1.471663306432745E+000
-3.7475666E-001	1.476437492317089E+000
-3.7368134E-001	1.479913402210787E+000
-3.7268627E-001	1.484557685055538E+000
-3.7162229E-001	1.489005047414032E+000
-3.7071374E-001	1.493761241160058E+000
-3.6966243E-001	1.497911912375121E+000
-3.6876234E-001	1.501921321092937E+000
-3.6763597E-001	1.506196471552055E+000
-3.6667013E-001	1.510509989260600E+000
-3.6573103E-001	1.514623014049395E+000
-3.6474702E-001	1.518323996966636E+000
-3.6370918E-001	1.522086941696106E+000
-3.6271608E-001	1.526321622784492E+000
-3.6166689E-001	1.530700397436263E+000
-3.6073413E-001	1.534813337229558E+000
-3.5970286E-001	1.539200470817310E+000
-3.5872045E-001	1.543375801019089E+000
-3.5768202E-001	1.548042738801222E+000
-3.5679117E-001	1.551364421154613E+000
-3.5564294E-001	1.555526716151723E+000
-3.5469598E-001	1.559139338562680E+000
-3.5369280E-001	1.566304532742056E+000
-3.5278702E-001	1.568535406280454E+000
-3.5166863E-001	1.572305625729825E+000
-3.5071883E-001	1.575761514405407E+000
-3.4968576E-001	1.579187339102788E+000
-3.4879646E-001	1.583622646410035E+000
-3.4771341E-001	1.587381895769532E+000
-3.4675708E-001	1.591237449811571E+000
-3.4573478E-001	1.595514497439204E+000
-3.4471390E-001	1.599189547201000E+000
-3.4372410E-001	1.603227870883769E+000
-3.4270483E-001	1.607439982418426E+000
-3.4176087E-001	1.610578378041588E+000
-3.4073165E-001	1.614471000101830E+000
-3.3972704E-001	1.618123528005018E+000
-3.3872703E-001	1.622120322728595E+000
-3.3777925E-001	1.625736066864590E+000
-3.3676332E-001	1.629347608149693E+000
-3.3563843E-001	1.633774014810715E+000
-3.3471656E-001	1.636899893758482E+000
-3.3367246E-001	1.641045923835898E+000
-3.3272445E-001	1.644697739018341E+000
-3.3170411E-001	1.649208846467513E+000
-3.3069688E-001	1.652935200016948E+000
-3.2973370E-001	1.656135119221830E+000
-3.2872373E-001	1.660042829259670E+000
-3.2764620E-001	1.663944666919093E+000
-3.2672507E-001	1.668003190722730E+000
-3.2574865E-001	1.670583258072535E+000
-3.2466450E-001	1.675122235493509E+000
-3.2374513E-001	1.677933974398506E+000
-3.2269806E-001	1.682320683918615E+000
-3.2164523E-001	1.686560565888271E+000
-3.2075134E-001	1.689609071170842E+000
-3.1969962E-001	1.692796975098277E+000
-3.1872487E-001	1.697058876122934E+000
-3.1770691E-001	1.700645650702491E+000
-3.1670418E-001	1.704620087588275E+000
-3.1572378E-001	1.708353481412175E+000
-3.1474286E-001	1.711235199537544E+000
-3.1375647E-001	1.714970347230084E+000
-3.1273314E-001	1.718061282918832E+000
-3.1177217E-001	1.721683850166983E+000
-3.1072450E-001	1.725193331087077E+000
-3.0976954E-001	1.729041730364170E+000
-3.0872688E-001	1.733414925358915E+000
-3.0776307E-001	1.736477798485915E+000
-3.0672932E-001	1.740209864521468E+000
-3.0583474E-001	1.743238339269609E+000
-3.0474952E-001	1.746605676136596E+000
-3.0380115E-001	1.750579139424696E+000
-3.0273178E-001	1.753597644192205E+000
-3.0179316E-001	1.757825363073518E+000
-3.0074692E-001	1.760627944160390E+000
-2.9973015E-001	1.764906820323738E+000
-2.9876918E-001	1.767841335645405E+000
-2.9778901E-001	1.770471262987016E+000
-2.9677355E-001	1.774118968182137E+000
-2.9580235E-001	1.777330001093546E+000
-2.9465738E-001	1.780344748386637E+000
-2.9371297E-001	1.784117091033193E+000
-2.9267699E-001	1.787565443785637E+000
-2.9168165E-001	1.790858362283970E+000
-2.9076248E-001	1.793930570008570E+000
-2.8980741E-001	1.797811117306885E+000
-2.8873134E-001	1.800737510400790E+000
-2.8777933E-001	1.804559995454760E+000
-2.8674352E-001	1.807840186286942E+000
-2.8578618E-001	1.810987837612627E+000
-2.8470817E-001	1.813998339904681E+000
-2.8376797E-001	1.817443425664699E+000
-2.8273323E-001	1.820771142840389E+000
-2.8176489E-001	1.824630811810504E+000
-2.8073856E-001	1.827413986034959E+000
-2.7978402E-001	1.831231673558555E+000
-2.7872190E-001	1.834436362540274E+000
-2.7774265E-001	1.837986467035623E+000
-2.7677396E-001	1.841027842627633E+000
-2.7570143E-001	1.844297002311109E+000
-2.7473623E-001	1.846808914061139E+000
-2.7366817E-001	1.850867596765358E+000
-2.7279040E-001	1.854365032028262E+000
-2.7176192E-001	1.857295685984134E+000
-2.7074230E-001	1.861344876940606E+000
-2.6975870E-001	1.864189647965961E+000
-2.6876307E-001	1.867438637920696E+000
-2.6767686E-001	1.870764903448247E+000
-2.6679593E-001	1.873282760657645E+000
-2.6573741E-001	1.876004179421432E+000
-2.6480255E-001	1.879993535578260E+000
-2.6374000E-001	1.883430080833257E+000
-2.6275876E-001	1.885906643603487E+000
-2.6176703E-001	1.889334841182947E+000
-2.6068705E-001	1.892828938585743E+000
-2.5975543E-001	1.896286326901617E+000
-2.5881609E-001	1.899100596430134E+000
-2.5770879E-001	1.902953899017096E+000
-2.5671566E-001	1.905439388024358E+000
-2.5575763E-001	1.908725425325052E+000
-2.5480330E-001	1.911656964156363E+000
-2.5374690E-001	1.914541372727959E+000
-2.5281417E-001	1.917458095208367E+000
-2.5181144E-001	1.920811243631228E+000
-2.5074670E-001	1.923708548107590E+000
-2.4972856E-001	1.927151390247872E+000
-2.4879901E-001	1.930266203979645E+000
-2.4774006E-001	1.933753557131297E+000
-2.4675834E-001	1.936356527385888E+000
-2.4577108E-001	1.939924600499652E+000
-2.4480212E-001	1.943466336686829E+000
-2.4375886E-001	1.946115912938566E+000
-2.4271211E-001	1.949657036490379E+000
-2.4181829E-001	1.952946871243139E+000
-2.4083596E-001	1.956108861775320E+000
-2.3976035E-001	1.958601179374011E+000
-2.3872210E-001	1.962072468466225E+000
-2.3774739E-001	1.964660888468778E+000
-2.3670594E-001	1.967198931243260E+000
-2.3580705E-001	1.970760556282823E+000
-2.3474386E-001	1.974692535621152E+000
-2.3378293E-001	1.978083981761211E+000
-2.3278213E-001	1.980333558111282E+000
-2.3178425E-001	1.982974173018227E+000
-2.3082721E-001	1.986475669666909E+000
-2.2977923E-001	1.989339871263070E+000
-2.2880940E-001	1.993026440066320E+000
-2.2780141E-001	1.995958537803874E+000
-2.2675261E-001	1.998026859705093E+000
-2.2585045E-001	2.001487263374861E+000
-2.2482118E-001	2.004500693775221E+000
-2.2382015E-001	2.007546642312295E+000
-2.2278771E-001	2.009882469144134E+000
-2.2173066E-001	2.013187702962242E+000
-2.2079924E-001	2.016584686107098E+000
-2.1983641E-001	2.019516654588553E+000
-2.1884942E-001	2.022260364480886E+000
-2.1779446E-001	2.025535109970312E+000
-2.1677096E-001	2.028646684079249E+000
-2.1574129E-001	2.031553298010317E+000
-2.1475425E-001	2.034500095027459E+000
-2.1374579E-001	2.036556468793641E+000
-2.1283861E-001	2.039333556542781E+000
-2.1180609E-001	2.042251173820752E+000
-2.1075755E-001	2.045710508194233E+000
-2.0973815E-001	2.048514389689425E+000
-2.0884500E-001	2.051526484390095E+000
-2.0777780E-001	2.053892789339571E+000
-2.0678778E-001	2.057071154426897E+000
-2.0581180E-001	2.059420589495594E+000
-2.0481779E-001	2.062444848594843E+000
-2.0377204E-001	2.065416754782145E+000
-2.0280914E-001	2.067662046463408E+000
-2.0183949E-001	2.070765760209818E+000
-2.0082697E-001	2.073690614707221E+000
-1.9969320E-001	2.076976601172383E+000
-1.9879889E-001	2.079328249726032E+000
-1.9782589E-001	2.082348374053289E+000
-1.9680700E-001	2.084989326419658E+000
-1.9571516E-001	2.087577104016587E+000
-1.9478291E-001	2.090274152699440E+000
-1.9380750E-001	2.093496626449955E+000
-1.9274582E-001	2.096687636993543E+000
-1.9182575E-001	2.099118298057249E+000
-1.9082583E-001	2.101989550171083E+000
-1.8984306E-001	2.104585185647027E+000
-1.8872942E-001	2.106652040297027E+000
-1.8775107E-001	2.109936881120561E+000
-1.8683636E-001	2.111928914432175E+000
-1.8575998E-001	2.115658807467767E+000
-1.8481734E-001	2.118247239126099E+000
-1.8378937E-001	2.121633602789153E+000
-1.8277921E-001	2.124494005612505E+000
-1.8182847E-001	2.127308407315496E+000
-1.8082236E-001	2.129515852365227E+000
-1.7981876E-001	2.131997835029056E+000
-1.7882644E-001	2.135300621390346E+000
-1.7775892E-001	2.137463013440758E+000
-1.7680208E-001	2.140207307482211E+000
-1.7581911E-001	2.142131610049141E+000
-1.7480691E-001	2.145509793051474E+000
-1.7384802E-001	2.148280205550016E+000
-1.7274262E-001	2.151405578134237E+000
-1.7184614E-001	2.154097581242757E+000
-1.7077683E-001	2.156217731811381E+000
-1.6988039E-001	2.159124812042275E+000
-1.6883318E-001	2.161707332686326E+000
-1.6780768E-001	2.164322906070289E+000
-1.6683699E-001	2.167097283458268E+000
-1.6579403E-001	2.169252923984054E+000
-1.6471000E-001	2.172303366440318E+000
-1.6378914E-001	2.174962350339811E+000
-1.6284269E-001	2.177561783795118E+000
-1.6180365E-001	2.180433569958922E+000
-1.6082488E-001	2.183009104872198E+000
-1.5976599E-001	2.185636287083328E+000
-1.5884191E-001	2.187961497516540E+000
-1.5784132E-001	2.190624255273075E+000
-1.5677507E-001	2.193145228386602E+000
-1.5578897E-001	2.195346613173133E+000
-1.5482168E-001	2.198039500801649E+000
-1.5386933E-001	2.200485517855942E+000
-1.5285400E-001	2.203113066101517E+000
-1.5182348E-001	2.205927617571969E+000
-1.5080564E-001	2.208671826427111E+000
-1.4984475E-001	2.210609173609145E+000
-1.4881486E-001	2.213390359999961E+000
-1.4784777E-001	2.216295938835083E+000
-1.4681897E-001	2.217988296515411E+000
-1.4582282E-001	2.220693083548992E+000
-1.4481787E-001	2.223903354405124E+000
-1.4389160E-001	2.226620709730526E+000
-1.4282928E-001	2.228871789519435E+000
-1.4177430E-001	2.231258377469381E+000
-1.4081915E-001	2.233422476936262E+000
-1.3979734E-001	2.235967121466445E+000
-1.3880767E-001	2.238600247589700E+000
-1.3785975E-001	2.241454898207280E+000
-1.3682818E-001	2.243655750872925E+000
-1.3576844E-001	2.246233231567833E+000
-1.3490587E-001	2.248929282029470E+000
-1.3385181E-001	2.250747452731493E+000
-1.3280460E-001	2.254099600051470E+000
-1.3175368E-001	2.256436810725257E+000
-1.3081543E-001	2.258777875039314E+000
-1.2983331E-001	2.261381613280324E+000
-1.2883733E-001	2.264341187145973E+000
-1.2776546E-001	2.266485935835926E+000
-1.2680425E-001	2.268962385209571E+000
-1.2576999E-001	2.271036372692499E+000
-1.2475707E-001	2.273493795207253E+000
-1.2380814E-001	2.276722385611698E+000
-1.2276010E-001	2.278621382183506E+000
-1.2172745E-001	2.281099577468853E+000
-1.2077552E-001	2.282416770483799E+000
-1.1980622E-001	2.286051101982586E+000
-1.1880858E-001	2.288202335437141E+000
-1.1783218E-001	2.290530413005278E+000
-1.1680336E-001	2.293064328255472E+000
-1.1582099E-001	2.295253703439670E+000
-1.1485071E-001	2.297356886696225E+000
-1.1379538E-001	2.299741525892859E+000
-1.1284785E-001	2.301968283562889E+000
-1.1179247E-001	2.304220483258923E+000
-1.1087015E-001	2.306743574363217E+000
-1.0988399E-001	2.309348401769345E+000
-1.0877497E-001	2.311327272819145E+000
-1.0777903E-001	2.314847893461025E+000
-1.0685331E-001	2.315553951499979E+000
-1.0580475E-001	2.319226077585309E+000
-1.0479841E-001	2.320202544883443E+000
-1.0381512E-001	2.323413405044466E+000
-1.0275924E-001	2.325226787891659E+000
-1.0181549E-001	2.327723712832828E+000
-1.0074795E-001	2.329998560925333E+000
-9.9832304E-002	2.332104002711954E+000
-9.8796718E-002	2.334300286240051E+000
-9.7881436E-002	2.337228046355182E+000
-9.6784033E-002	2.338779425455465E+000
-9.5732726E-002	2.341967126009642E+000
-9.4781116E-002	2.343827455106553E+000
-9.3849242E-002	2.345888596993905E+000
-9.2804521E-002	2.347879442075893E+000
-9.1815427E-002	2.350383280301386E+000
-9.0815417E-002	2.352338751433070E+000
-8.9726552E-002	2.354650088206490E+000
-8.8860914E-002	2.356870128293782E+000
-8.7773718E-002	2.359078098778362E+000
-8.6800054E-002	2.361340815270392E+000
-8.5896298E-002	2.363646311993577E+000
-8.4835313E-002	2.366313435137277E+000
-8.3823897E-002	2.368147898327415E+000
-8.2726374E-002	2.370007996357655E+000
-8.1818439E-002	2.372369359488843E+000
-8.0877446E-002	2.374398065110050E+000
-7.9824910E-002	2.376304914154268E+000
-7.8861177E-002	2.377861905429093E+000
-7.7777624E-002	2.381123722979314E+000
-7.6898240E-002	2.382900509984619E+000
-7.5836040E-002	2.384996908682366E+000
-7.4787490E-002	2.386882272307517E+000
-7.3930793E-002	2.389312347357361E+000
-7.2820634E-002	2.391853812116166E+000
-7.1855679E-002	2.393571140589545E+000
-7.0860744E-002	2.395627972205726E+000
-6.9820732E-002	2.397793758246634E+000
-6.8819068E-002	2.400079423354740E+000
-6.7763515E-002	2.402228357537973E+000
-6.6789642E-002	2.404694489306870E+000
-6.5792859E-002	2.406125068664551E+000
-6.4868107E-002	2.408134292062869E+000
-6.3829631E-002	2.410622132045252E+000
-6.2845983E-002	2.412830384793107E+000
-6.1758019E-002	2.414687592006047E+000
-6.0852416E-002	2.416892287355879E+000
-5.9848621E-002	2.419274756201986E+000
-5.8847118E-002	2.421389028221242E+000
-5.7799049E-002	2.422778807856417E+000
-5.6849781E-002	2.425284213489959E+000
-5.5793919E-002	2.426903183530413E+000
-5.4808259E-002	2.429366608736702E+000
-5.3848810E-002	2.430864266775274E+000
-5.2791700E-002	2.433752008962049E+000
-5.1750232E-002	2.435024532454978E+000
-5.0819632E-002	2.437551459504501E+000
-4.9902819E-002	2.439382233097554E+000
-4.8818205E-002	2.441082889007191E+000
-4.7831815E-002	2.442846725108456E+000
-4.6900366E-002	2.445413165190370E+000
-4.5889154E-002	2.447035258014996E+000
-4.4849932E-002	2.448995847142806E+000
-4.3873943E-002	2.451341308377408E+000
-4.2848308E-002	2.452864843662123E+000
-4.1846503E-002	2.454743429990533E+000
-4.0871274E-002	2.457054833571114E+000
-3.9860066E-002	2.459297712202439E+000
-3.8876433E-002	2.461094408639132E+000
-3.7845917E-002	2.463172968890937E+000
-3.6830459E-002	2.464894095504736E+000
-3.5839476E-002	2.467102684424262E+000
-3.4866802E-002	2.468763030237625E+000
-3.3881892E-002	2.470062815204827E+000
-3.2872338E-002	2.472359159676063E+000
-3.1850137E-002	2.475694903620971E+000
-3.0820046E-002	2.476787789552299E+000
-2.9826989E-002	2.478772098448580E+000
-2.8947810E-002	2.479633813654935E+000
-2.7863203E-002	2.482097190287380E+000
-2.6830893E-002	2.484332985331662E+000
-2.5868990E-002	2.486180461115310E+000
-2.4877084E-002	2.487477105248857E+000
-2.3835110E-002	2.489179321609075E+000
-2.2810325E-002	2.491224757775119E+000
-2.1802295E-002	2.492851316928864E+000
-2.0862408E-002	2.494902379899064E+000
-1.9867904E-002	2.496464934062072E+000
-1.8844388E-002	2.498367291357788E+000
-1.7808326E-002	2.500689111134633E+000
-1.6864605E-002	2.501797276790498E+000
-1.5837699E-002	2.504099919564197E+000
-1.4881693E-002	2.506162941092235E+000
-1.3783030E-002	2.508120038167194E+000
-1.2837579E-002	2.509024209446387E+000
-1.1853774E-002	2.510837601390691E+000
-1.0874127E-002	2.513229641373517E+000
-9.7939745E-003	2.515390424264810E+000
-8.8910246E-003	2.516205731748922E+000
-7.8112190E-003	2.518571076017835E+000
-6.8674646E-003	2.520227495442938E+000
-5.7836184E-003	2.521720910027311E+000
-4.9035889E-003	2.523166916988522E+000
-3.7841923E-003	2.525814801730487E+000
-2.9002458E-003	2.527254179413468E+000
-1.8122559E-003	2.528910319286361E+000
-9.1644184E-004	2.530742845049602E+000
1.7506241E-004	2.532250869344746E+000
1.1365268E-003	2.533275109474308E+000
2.1956784E-003	2.535942313571768E+000
3.1936050E-003	2.536409325019662E+000
4.0961276E-003	2.539473116949750E+000
5.1421276E-003	2.540278387290467E+000
6.2051308E-003	2.542757019251015E+000
6.4683496E-003	2.542558679978053E+000
6.7967228E-003	2.542827218770981E+000