EC-Lab ASCII FILE
Nb header lines : 63                          

Linear Sweep Voltammetry

Run on channel : 6 (SN 13765)
User : 
Electrode connection : standard
Potential control : Ewe
Ewe ctrl range : min = -2.50 V, max = 2.50 V
Ewe,I filtering : <None>
Safety Limits :
	Do not start on E overload
Channel : Floating
Acquisition started on : 07/13/2026 15:55:33.417
Technique started on : 07/13/2026 15:55:34.414
Loaded Setting File :  C:\Users\EEM-620\Desktop\Wade\20260630\LSV 1mg MoS2 1_C06.mpr
Saved on :
	File : N719_0713-e-2_C06.mpr
	Directory : C:\Users\EEM-620\Desktop\Wade\abao\20260713\
	Host : 192.109.209.200
Device : VSP-300 (SN 0025)
Address : 192.109.209.129
EC-LAB for windows v11.62 (software)
Internet server v27.00 (firmware)
Command interpretor v12.02 (firmware)
Electrode material : Au/Pd
Initial state : 
Electrolyte : NaCl (0.2M)
Comments : Fe(CN)63-/Fe(CN)64- 5.10-3 M
Cable : ULC
Reference electrode : SCE Saturated Calomel Electrode (0.241 V)
Electrode surface area : 0.001 cm2
Characteristic mass : 0.001 g
Equivalent Weight : 0.000 g/eq.
Density : 0.000 g/cm3
Volume (V) : 0.001 cm3
Cycle Definition : Charge/Discharge alternance
tR (h:m:s)          0:00:5.0000         
dER/dt (mV/h)       0.0                 
dER (mV)            0                   
dtR (s)             0.0500              
dE/dt               10.000              
dE/dt unit          mV/s                
Ei (V)              -0.800              
vs.                 Ref                 
EL (V)              0.010               
vs.                 Ref                 
record              <I>                 
dI                  0.000               
unit dI             uA                  
tI (s)              0.0000              
step percent        50                  
N                   10                  
E range min (V)     -2.500              
E range max (V)     2.500               
I Range             Auto                
I Range min         Unset               
I Range max         Unset               
I Range init        Unset               
Bandwidth           8                   

Ewe/V	<I>/mA	
-2.3391610E-001	0.000000000000000E+000
-2.3355336E-001	0.000000000000000E+000
-2.3395428E-001	0.000000000000000E+000
-2.3408410E-001	0.000000000000000E+000
-2.3390463E-001	0.000000000000000E+000
-2.3412611E-001	0.000000000000000E+000
-2.3385118E-001	0.000000000000000E+000
-2.3395811E-001	0.000000000000000E+000
-2.3405355E-001	0.000000000000000E+000
-2.3405737E-001	0.000000000000000E+000
-2.3420246E-001	0.000000000000000E+000
-2.3433228E-001	0.000000000000000E+000
-2.3405737E-001	0.000000000000000E+000
-2.3424065E-001	0.000000000000000E+000
-2.3366791E-001	0.000000000000000E+000
-2.3385118E-001	0.000000000000000E+000
-2.3422156E-001	0.000000000000000E+000
-2.3434757E-001	0.000000000000000E+000
-2.3432465E-001	0.000000000000000E+000
-2.3464157E-001	0.000000000000000E+000
-2.3435901E-001	0.000000000000000E+000
-2.3430556E-001	0.000000000000000E+000
-2.3411846E-001	0.000000000000000E+000
-2.3360682E-001	0.000000000000000E+000
-2.3446974E-001	0.000000000000000E+000
-2.3412611E-001	0.000000000000000E+000
-2.3444302E-001	0.000000000000000E+000
-2.3428266E-001	0.000000000000000E+000
-2.3405355E-001	0.000000000000000E+000
-2.3441629E-001	0.000000000000000E+000
-2.3429792E-001	0.000000000000000E+000
-2.3417956E-001	0.000000000000000E+000
-2.3435520E-001	0.000000000000000E+000
-2.3432083E-001	0.000000000000000E+000
-2.3405738E-001	0.000000000000000E+000
-2.3439339E-001	0.000000000000000E+000
-2.3417574E-001	0.000000000000000E+000
-2.3439720E-001	0.000000000000000E+000
-2.3449266E-001	0.000000000000000E+000
-2.3436284E-001	0.000000000000000E+000
-2.3450412E-001	0.000000000000000E+000
-2.3461485E-001	0.000000000000000E+000
-2.3460339E-001	0.000000000000000E+000
-2.3446974E-001	0.000000000000000E+000
-2.3448884E-001	0.000000000000000E+000
-2.3480958E-001	0.000000000000000E+000
-2.3474085E-001	0.000000000000000E+000
-2.3448120E-001	0.000000000000000E+000
-2.3444302E-001	0.000000000000000E+000
-2.3442392E-001	0.000000000000000E+000
-2.3447357E-001	0.000000000000000E+000
-2.3463011E-001	0.000000000000000E+000
-2.3425975E-001	0.000000000000000E+000
-2.3458049E-001	0.000000000000000E+000
-2.3483248E-001	0.000000000000000E+000
-2.3495848E-001	0.000000000000000E+000
-2.3463394E-001	0.000000000000000E+000
-2.3445065E-001	0.000000000000000E+000
-2.3443919E-001	0.000000000000000E+000
-2.3487832E-001	0.000000000000000E+000
-2.3468739E-001	0.000000000000000E+000
-2.3964734E-001	0.000000000000000E+000
-2.3961298E-001	0.000000000000000E+000
-7.8938222E-001	-4.756151271903001E+000
-7.8877020E-001	-4.727801253878255E+000
-7.8767926E-001	-4.691552146717363E+000
-7.8672898E-001	-4.664406407210564E+000
-7.8583568E-001	-4.642688174604771E+000
-7.8474122E-001	-4.624189530809730E+000
-7.8379428E-001	-4.607967936330340E+000
-7.8274739E-001	-4.593300298738928E+000
-7.8176796E-001	-4.579845743046874E+000
-7.8080720E-001	-4.567233149100240E+000
-7.7981889E-001	-4.555295023657749E+000
-7.7881694E-001	-4.543865668001001E+000
-7.7777386E-001	-4.533126743303406E+000
-7.7675390E-001	-4.522271136514004E+000
-7.7577680E-001	-4.511946188078988E+000
-7.7474689E-001	-4.501602664589869E+000
-7.7375060E-001	-4.491289953162777E+000
-7.7280915E-001	-4.481487657184942E+000
-7.7188867E-001	-4.471230191765002E+000
-7.7082956E-001	-4.461598821399683E+000
-7.6976192E-001	-4.451518679658562E+000
-7.6873988E-001	-4.441833400064034E+000
-7.6775467E-001	-4.432124713979704E+000
-7.6683784E-001	-4.422527682450067E+000
-7.6577902E-001	-4.412759301839039E+000
-7.6481837E-001	-4.403190609833031E+000
-7.6373112E-001	-4.393618655977420E+000
-7.6280576E-001	-4.383918207000796E+000
-7.6182640E-001	-4.374318478883950E+000
-7.6078230E-001	-4.364786121580330E+000
-7.5988948E-001	-4.355430554460593E+000
-7.5877470E-001	-4.345800544160781E+000
-7.5787729E-001	-4.336397981202140E+000
-7.5673640E-001	-4.327177988158325E+000
-7.5578523E-001	-4.317708541301709E+000
-7.5498801E-001	-4.308190508021241E+000
-7.5386673E-001	-4.298976972757359E+000
-7.5285977E-001	-4.289605047415790E+000
-7.5188226E-001	-4.280077589330830E+000
-7.5086206E-001	-4.270726062183073E+000
-7.4989718E-001	-4.261560555409517E+000
-7.4891800E-001	-4.252176862072076E+000
-7.4784344E-001	-4.242942766520528E+000
-7.4680829E-001	-4.233505228603326E+000
-7.4589455E-001	-4.224233096396482E+000
-7.4478859E-001	-4.214944950320685E+000
-7.4380875E-001	-4.205501477475522E+000
-7.4298424E-001	-4.196050961260440E+000
-7.4189955E-001	-4.186978788477585E+000
-7.4086785E-001	-4.177770201806666E+000
-7.3980123E-001	-4.168465980777029E+000
-7.3888379E-001	-4.159332789836355E+000
-7.3789060E-001	-4.150274225959080E+000
-7.3688549E-001	-4.141134209654940E+000
-7.3581016E-001	-4.132103327585149E+000
-7.3487163E-001	-4.122732076379990E+000
-7.3392481E-001	-4.113432846135566E+000
-7.3281324E-001	-4.104308595966057E+000
-7.3189777E-001	-4.095128391627910E+000
-7.3084265E-001	-4.085844401959989E+000
-7.2992569E-001	-4.076837081626513E+000
-7.2888029E-001	-4.067582133191610E+000
-7.2785890E-001	-4.058313696472709E+000
-7.2688764E-001	-4.049663056732707E+000
-7.2586995E-001	-4.040450164565343E+000
-7.2494936E-001	-4.031118981816142E+000
-7.2391742E-001	-4.022127255139878E+000
-7.2284967E-001	-4.012950059440399E+000
-7.2191870E-001	-4.003952999909712E+000
-7.2090918E-001	-3.994870352958507E+000
-7.1984768E-001	-3.985789174834878E+000
-7.1885765E-001	-3.976758683721219E+000
-7.1789801E-001	-3.967689403128432E+000
-7.1686172E-001	-3.958530315646414E+000
-7.1587670E-001	-3.949501958158272E+000
-7.1476948E-001	-3.940092665149059E+000
-7.1383905E-001	-3.931394190699947E+000
-7.1284676E-001	-3.922324708214507E+000
-7.1183753E-001	-3.913348808051069E+000
-7.1090245E-001	-3.904295336317134E+000
-7.0985734E-001	-3.895536291378505E+000
-7.0884109E-001	-3.886628888473590E+000
-7.0785546E-001	-3.877730205103205E+000
-7.0686132E-001	-3.868568064437952E+000
-7.0592111E-001	-3.859515623996920E+000
-7.0489055E-001	-3.850607011053285E+000
-7.0393348E-001	-3.841320200650799E+000
-7.0284200E-001	-3.832323606546662E+000
-7.0190525E-001	-3.823562986320908E+000
-7.0081908E-001	-3.814916811055603E+000
-6.9990957E-001	-3.805945264524901E+000
-6.9883221E-001	-3.796813428401940E+000
-6.9787228E-001	-3.787727052966744E+000
-6.9687796E-001	-3.778881683993646E+000
-6.9591528E-001	-3.769629756609593E+000
-6.9496894E-001	-3.760864700432180E+000
-6.9385803E-001	-3.752117916773660E+000
-6.9288516E-001	-3.743109311218589E+000
-6.9187987E-001	-3.734002083539952E+000
-6.9090235E-001	-3.725078112309305E+000
-6.8978196E-001	-3.716109363569160E+000
-6.8890107E-001	-3.707228093522190E+000
-6.8785018E-001	-3.698260670458815E+000
-6.8690997E-001	-3.689305471049408E+000
-6.8598497E-001	-3.680340348170198E+000
-6.8488419E-001	-3.671687010261735E+000
-6.8385696E-001	-3.662622188528383E+000
-6.8281972E-001	-3.653760047941816E+000
-6.8188405E-001	-3.644803684066837E+000
-6.8079925E-001	-3.636249424682717E+000
-6.7991841E-001	-3.627154768405966E+000
-6.7889202E-001	-3.618381833588629E+000
-6.7787576E-001	-3.609505231181782E+000
-6.7690086E-001	-3.600479017058277E+000
-6.7591310E-001	-3.591705671063160E+000
-6.7496681E-001	-3.582604443585428E+000
-6.7385793E-001	-3.573809765676813E+000
-6.7296368E-001	-3.565013794987294E+000
-6.7192870E-001	-3.556242388707602E+000
-6.7088425E-001	-3.547569373163626E+000
-6.6996527E-001	-3.538346509138742E+000
-6.6889995E-001	-3.529739553729698E+000
-6.6790211E-001	-3.520679099289822E+000
-6.6688025E-001	-3.512104904210119E+000
-6.6595584E-001	-3.503153104473046E+000
-6.6486073E-001	-3.494279657141099E+000
-6.6384935E-001	-3.485215909503118E+000
-6.6293114E-001	-3.476664458711952E+000
-6.6183722E-001	-3.467751653010936E+000
-6.6090292E-001	-3.458873728911078E+000
-6.5992355E-001	-3.449908602016947E+000
-6.5890878E-001	-3.441190058126349E+000
-6.5792787E-001	-3.432726789403830E+000
-6.5699834E-001	-3.423720438723208E+000
-6.5592474E-001	-3.414747791203837E+000
-6.5497142E-001	-3.405916600867542E+000
-6.5396219E-001	-3.397276878356943E+000
-6.5293813E-001	-3.388437610223590E+000
-6.5187538E-001	-3.379589244171420E+000
-6.5084463E-001	-3.370696591006386E+000
-6.4988297E-001	-3.362041795319357E+000
-6.4885539E-001	-3.353389877963963E+000
-6.4789218E-001	-3.344542619254852E+000
-6.4688730E-001	-3.335689895099122E+000
-6.4589286E-001	-3.327073018308042E+000
-6.4491349E-001	-3.318587864438676E+000
-6.4393604E-001	-3.309719225141691E+000
-6.4293498E-001	-3.300661552835384E+000
-6.4185160E-001	-3.292174896708254E+000
-6.4097679E-001	-3.283405185864055E+000
-6.3988793E-001	-3.274709235738795E+000
-6.3886338E-001	-3.265912264585495E+000
-6.3787502E-001	-3.257110683610406E+000
-6.3694048E-001	-3.248697812358529E+000
-6.3587070E-001	-3.239948598323046E+000
-6.3492775E-001	-3.231105620833581E+000
-6.3390666E-001	-3.222381145313928E+000
-6.3287121E-001	-3.213662996336282E+000
-6.3196784E-001	-3.204911150283309E+000
-6.3091934E-001	-3.196688400374525E+000
-6.2985897E-001	-3.188010885759621E+000
-6.2892669E-001	-3.178873345567794E+000
-6.2789273E-001	-3.170206032417436E+000
-6.2692106E-001	-3.161573041920306E+000
-6.2589622E-001	-3.153013383732713E+000
-6.2488353E-001	-3.143895224840549E+000
-6.2393159E-001	-3.135449125508103E+000
-6.2286240E-001	-3.127226025142036E+000
-6.2195832E-001	-3.118269764162889E+000
-6.2081575E-001	-3.109781511160405E+000
-6.1986715E-001	-3.100917623274857E+000
-6.1887908E-001	-3.092114338996240E+000
-6.1786634E-001	-3.083628197704870E+000
-6.1692876E-001	-3.075093395180190E+000
-6.1594450E-001	-3.066578795512520E+000
-6.1488736E-001	-3.057922854902692E+000
-6.1387181E-001	-3.049344705210785E+000
-6.1287373E-001	-3.040692469036124E+000
-6.1192322E-001	-3.032082587795589E+000
-6.1090410E-001	-3.023333282658344E+000
-6.0991216E-001	-3.014511265136576E+000
-6.0884660E-001	-3.006348686925435E+000
-6.0792631E-001	-2.997579004477586E+000
-6.0690278E-001	-2.988890112826109E+000
-6.0593653E-001	-2.980407116963349E+000
-6.0490006E-001	-2.971608696436434E+000
-6.0395676E-001	-2.963195642939311E+000
-6.0292655E-001	-2.954612818449405E+000
-6.0192543E-001	-2.946078615608030E+000
-6.0088980E-001	-2.937371862431377E+000
-5.9993702E-001	-2.928841679949230E+000
-5.9885740E-001	-2.920291733686575E+000
-5.9795207E-001	-2.911634228295748E+000
-5.9689826E-001	-2.902980437193548E+000
-5.9589279E-001	-2.894447449456770E+000
-5.9496593E-001	-2.886098993873134E+000
-5.9387058E-001	-2.877609418218057E+000
-5.9290999E-001	-2.868966844070840E+000
-5.9198320E-001	-2.860554067348971E+000
-5.9085941E-001	-2.851976059134060E+000
-5.8996528E-001	-2.843409371596806E+000
-5.8895379E-001	-2.834813833512646E+000
-5.8787543E-001	-2.826078776911658E+000
-5.8692759E-001	-2.817624325001681E+000
-5.8586800E-001	-2.809191867709160E+000
-5.8486819E-001	-2.800783106883522E+000
-5.8391011E-001	-2.792142137885088E+000
-5.8290672E-001	-2.783655571440853E+000
-5.8195347E-001	-2.775137230143539E+000
-5.8100438E-001	-2.766825360280492E+000
-5.7995301E-001	-2.758014268621245E+000
-5.7893187E-001	-2.749493125206985E+000
-5.7793319E-001	-2.740960518243135E+000
-5.7693964E-001	-2.732558068577895E+000
-5.7591540E-001	-2.723973700002258E+000
-5.7495022E-001	-2.715657756836340E+000
-5.7392335E-001	-2.707209553707532E+000
-5.7299668E-001	-2.698565523820019E+000
-5.7182962E-001	-2.690011741110571E+000
-5.7078952E-001	-2.681505687258855E+000
-5.6989837E-001	-2.673237762580726E+000
-5.6885260E-001	-2.664809043484702E+000
-5.6791711E-001	-2.656213099205928E+000
-5.6685531E-001	-2.648001485621659E+000
-5.6593519E-001	-2.639636009379661E+000
-5.6500059E-001	-2.630885654025597E+000
-5.6397498E-001	-2.622414183177519E+000
-5.6293833E-001	-2.614125031563967E+000
-5.6189954E-001	-2.605556477167974E+000
-5.6098908E-001	-2.596827258114462E+000
-5.5989581E-001	-2.588569483823257E+000
-5.5890971E-001	-2.580181907487393E+000
-5.5790579E-001	-2.571731612914139E+000
-5.5693465E-001	-2.563508454296322E+000
-5.5602652E-001	-2.554816492211383E+000
-5.5492884E-001	-2.546398220790756E+000
-5.5394965E-001	-2.538080470981422E+000
-5.5290121E-001	-2.529778294772935E+000
-5.5188560E-001	-2.520990797215028E+000
-5.5095547E-001	-2.512887246630812E+000
-5.4991883E-001	-2.504317726048782E+000
-5.4901129E-001	-2.496046338368355E+000
-5.4797423E-001	-2.487798386425879E+000
-5.4695690E-001	-2.479237735788981E+000
-5.4592633E-001	-2.471121956352832E+000
-5.4494739E-001	-2.462691376882567E+000
-5.4392850E-001	-2.454189741629950E+000
-5.4294741E-001	-2.445620565226790E+000
-5.4194999E-001	-2.437341661916831E+000
-5.4081273E-001	-2.429130760210498E+000
-5.3996408E-001	-2.420686030553448E+000
-5.3899533E-001	-2.412484439710774E+000
-5.3793812E-001	-2.404160983996856E+000
-5.3695780E-001	-2.395841411694327E+000
-5.3595656E-001	-2.387450945322160E+000
-5.3494370E-001	-2.379063879915748E+000
-5.3384525E-001	-2.370424489456179E+000
-5.3293943E-001	-2.362260168625255E+000
-5.3190559E-001	-2.353889394777447E+000
-5.3093702E-001	-2.345579425217935E+000
-5.2996522E-001	-2.337341768046223E+000
-5.2888769E-001	-2.328824757146857E+000
-5.2790296E-001	-2.321016106340618E+000
-5.2691209E-001	-2.312376197289538E+000
-5.2595335E-001	-2.304245907015250E+000
-5.2491492E-001	-2.295705604332468E+000
-5.2401000E-001	-2.287208478759837E+000
-5.2287185E-001	-2.278976409286393E+000
-5.2194518E-001	-2.270713607746146E+000
-5.2096593E-001	-2.262456236338174E+000
-5.1996750E-001	-2.254146844667609E+000
-5.1897150E-001	-2.246005024898938E+000
-5.1791126E-001	-2.237452747645190E+000
-5.1688981E-001	-2.229252522380392E+000
-5.1595950E-001	-2.220650272788838E+000
-5.1496869E-001	-2.212574760946961E+000
-5.1397455E-001	-2.204057036352783E+000
-5.1300079E-001	-2.195770006488861E+000
-5.1197278E-001	-2.187748158143627E+000
-5.1090968E-001	-2.179286234032931E+000
-5.1002270E-001	-2.171463782312685E+000
-5.0896335E-001	-2.162623371514993E+000
-5.0789899E-001	-2.154635435014090E+000
-5.0691634E-001	-2.146369655651064E+000
-5.0599867E-001	-2.138254197935268E+000
-5.0495857E-001	-2.130210702034063E+000
-5.0396860E-001	-2.122535267085944E+000
-5.0291961E-001	-2.113635732343909E+000
-5.0204909E-001	-2.105022973397240E+000
-5.0090319E-001	-2.096887987245005E+000
-4.9997124E-001	-2.088957003421250E+000
-4.9897298E-001	-2.080537268936919E+000
-4.9792165E-001	-2.072022271928958E+000
-4.9699384E-001	-2.064039486425900E+000
-4.9591881E-001	-2.055881323181879E+000
-4.9494019E-001	-2.047590033599624E+000
-4.9388129E-001	-2.039346892010897E+000
-4.9290657E-001	-2.031242124460359E+000
-4.9190152E-001	-2.023087076566842E+000
-4.9099249E-001	-2.014611991276944E+000
-4.8987502E-001	-2.006606074946898E+000
-4.8893210E-001	-1.998565461348596E+000
-4.8794505E-001	-1.990274631107425E+000
-4.8692119E-001	-1.982368442747314E+000
-4.8594368E-001	-1.974054438372450E+000
-4.8502070E-001	-1.965825277102184E+000
-4.8390195E-001	-1.957436187123809E+000
-4.8303840E-001	-1.949416898466927E+000
-4.8198584E-001	-1.941276228570789E+000
-4.8093453E-001	-1.933361310097906E+000
-4.7993159E-001	-1.925211839377887E+000
-4.7898462E-001	-1.917052106302151E+000
-4.7793588E-001	-1.908796474061624E+000
-4.7693080E-001	-1.900710472078233E+000
-4.7597563E-001	-1.892789681363411E+000
-4.7493726E-001	-1.884139947593216E+000
-4.7391731E-001	-1.876098751469895E+000
-4.7298470E-001	-1.868129583661410E+000
-4.7192669E-001	-1.859988053639732E+000
-4.7089639E-001	-1.851523765535264E+000
-4.6993816E-001	-1.843395804822404E+000
-4.6888167E-001	-1.834972736736136E+000
-4.6788636E-001	-1.827088636380662E+000
-4.6689975E-001	-1.819158845032639E+000
-4.6596634E-001	-1.810827334997832E+000
-4.6497554E-001	-1.803142266141041E+000
-4.6397606E-001	-1.794980221569478E+000
-4.6284786E-001	-1.786754189817998E+000
-4.6196818E-001	-1.778417642469755E+000
-4.6099520E-001	-1.770467404733659E+000
-4.5994237E-001	-1.762198688531362E+000
-4.5897931E-001	-1.754253891055232E+000
-4.5806682E-001	-1.746510653926492E+000
-4.5692760E-001	-1.738491436397585E+000
-4.5598364E-001	-1.730199060782233E+000
-4.5495200E-001	-1.722088791441783E+000
-4.5398220E-001	-1.714111818483580E+000
-4.5291924E-001	-1.705881112427624E+000
-4.5201579E-001	-1.697850292905965E+000
-4.5089722E-001	-1.689989400406688E+000
-4.4999424E-001	-1.681951933436931E+000
-4.4892102E-001	-1.673893461557442E+000
-4.4793341E-001	-1.665790328273062E+000
-4.4690061E-001	-1.657753312753300E+000
-4.4595572E-001	-1.649779153106671E+000
-4.4501263E-001	-1.641819937637555E+000
-4.4389451E-001	-1.633521953390705E+000
-4.4299319E-001	-1.625533454643700E+000
-4.4197261E-001	-1.617574469358834E+000
-4.4094551E-001	-1.609808607233891E+000
-4.3990421E-001	-1.601911108448924E+000
-4.3894500E-001	-1.593895156902299E+000
-4.3794835E-001	-1.585504394714482E+000
-4.3698144E-001	-1.577515045894138E+000
-4.3599215E-001	-1.569755166493071E+000
-4.3488416E-001	-1.561592024923470E+000
-4.3395889E-001	-1.553632288313382E+000
-4.3303907E-001	-1.545602503612095E+000
-4.3194389E-001	-1.537490762908156E+000
-4.3095753E-001	-1.529576233727635E+000
-4.2993334E-001	-1.521729606583166E+000
-4.2895651E-001	-1.513785843389408E+000
-4.2800486E-001	-1.506088195299661E+000
-4.2695040E-001	-1.497940099349734E+000
-4.2598552E-001	-1.490052431447388E+000
-4.2498866E-001	-1.482084522092785E+000
-4.2390236E-001	-1.474122676584454E+000
-4.2293081E-001	-1.466160345300594E+000
-4.2191812E-001	-1.458087064325808E+000
-4.2098263E-001	-1.450165908921651E+000
-4.1997316E-001	-1.442243905813687E+000
-4.1899139E-001	-1.434390003896425E+000
-4.1792455E-001	-1.426464558475552E+000
-4.1702151E-001	-1.418310406898975E+000
-4.1591850E-001	-1.410440500549697E+000
-4.1499472E-001	-1.402591275810096E+000
-4.1398364E-001	-1.394528238139166E+000
-4.1295344E-001	-1.386615284201173E+000
-4.1199139E-001	-1.378892149362297E+000
-4.1094601E-001	-1.370886093589986E+000
-4.0994203E-001	-1.362899512328481E+000
-4.0902585E-001	-1.355110906616408E+000
-4.0796697E-001	-1.347029355645565E+000
-4.0694234E-001	-1.338984005291152E+000
-4.0589395E-001	-1.331230409029461E+000
-4.0501747E-001	-1.323286089230788E+000
-4.0398827E-001	-1.315662741661072E+000
-4.0298539E-001	-1.307761047173424E+000
-4.0194795E-001	-1.300060423976230E+000
-4.0099871E-001	-1.291889061254484E+000
-3.9999959E-001	-1.284240337157691E+000
-3.9900938E-001	-1.276156541872127E+000
-3.9798340E-001	-1.268277796330278E+000
-3.9699802E-001	-1.260581812234939E+000
-3.9603162E-001	-1.252961544085089E+000
-3.9490283E-001	-1.245096338843854E+000
-3.9401972E-001	-1.237699990609178E+000
-3.9300519E-001	-1.229354603921710E+000
-3.9193374E-001	-1.221655003036615E+000
-3.9097872E-001	-1.213702667504546E+000
-3.8994876E-001	-1.206037300708868E+000
-3.8894928E-001	-1.197842211910968E+000
-3.8806742E-001	-1.190127863376225E+000
-3.8692987E-001	-1.182104233351619E+000
-3.8592774E-001	-1.174460402793352E+000
-3.8495556E-001	-1.166907446113997E+000
-3.8394210E-001	-1.159174083429444E+000
-3.8297957E-001	-1.151109000460972E+000
-3.8192612E-001	-1.143344264891415E+000
-3.8098571E-001	-1.135541412553584E+000
-3.8005009E-001	-1.127757542801122E+000
-3.7891942E-001	-1.120441920365451E+000
-3.7794545E-001	-1.112468126881211E+000
-3.7688303E-001	-1.104393617422494E+000
-3.7598211E-001	-1.096388096748679E+000
-3.7492734E-001	-1.088452685174286E+000
-3.7401715E-001	-1.080750320658645E+000
-3.7295806E-001	-1.073012201736372E+000
-3.7190560E-001	-1.065217884040454E+000
-3.7102661E-001	-1.057852592595196E+000
-3.6992165E-001	-1.050073424561155E+000
-3.6897120E-001	-1.041831222104502E+000
-3.6793780E-001	-1.033893904062335E+000
-3.6697921E-001	-1.026480056345459E+000
-3.6592799E-001	-1.018458246238427E+000
-3.6497355E-001	-1.011071444385581E+000
-3.6395553E-001	-1.003357016239999E+000
-3.6297578E-001	-9.957460870669355E-001
-3.6194563E-001	-9.876406991647286E-001
-3.6098596E-001	-9.798975621384598E-001
-3.6008319E-001	-9.721222022869203E-001
-3.5900238E-001	-9.646345386626554E-001
-3.5799953E-001	-9.571127648168378E-001
-3.5691845E-001	-9.492253382448794E-001
-3.5589936E-001	-9.417507391836963E-001
-3.5492200E-001	-9.338694459513306E-001
-3.5399321E-001	-9.261761012452556E-001
-3.5293064E-001	-9.184801505395677E-001
-3.5197520E-001	-9.107632506855792E-001
-3.5105056E-001	-9.032175230483190E-001
-3.4990317E-001	-8.955066398614004E-001
-3.4896991E-001	-8.879066492884462E-001
-3.4803730E-001	-8.803614743605834E-001
-3.4691980E-001	-8.725160859801147E-001
-3.4591061E-001	-8.648961104188304E-001
-3.4494829E-001	-8.571616561600450E-001
-3.4394726E-001	-8.493929124540767E-001
-3.4310105E-001	-8.419400111366517E-001
-3.4203833E-001	-8.342081792652616E-001
-3.4100440E-001	-8.269503313910072E-001
-3.3999085E-001	-8.190117795676262E-001
-3.3896947E-001	-8.113910347499207E-001
-3.3804142E-001	-8.036641754485903E-001
-3.3703363E-001	-7.961279447580765E-001
-3.3603767E-001	-7.886157383521422E-001
-3.3493608E-001	-7.805923426316888E-001
-3.3394036E-001	-7.734328534093724E-001
-3.3309081E-001	-7.657623046802193E-001
-3.3202168E-001	-7.581995056459205E-001
-3.3096278E-001	-7.504321498218740E-001
-3.2996467E-001	-7.427249859880494E-001
-3.2904872E-001	-7.353099864666106E-001
-3.2798830E-001	-7.276985907527873E-001
-3.2701483E-001	-7.203021982891684E-001
-3.2594636E-001	-7.126103315364460E-001
-3.2506290E-001	-7.049985347453767E-001
-3.2401112E-001	-6.973467232590522E-001
-3.2300860E-001	-6.898946202601535E-001
-3.2205778E-001	-6.824552382771103E-001
-3.2091850E-001	-6.743957501732636E-001
-3.2006407E-001	-6.672877553436480E-001
-3.1898612E-001	-6.596824653181672E-001
-3.1797352E-001	-6.519405803884610E-001
-3.1704572E-001	-6.443695936489977E-001
-3.1603721E-001	-6.369259289265412E-001
-3.1498700E-001	-6.294714722920327E-001
-3.1397131E-001	-6.224441720793674E-001
-3.1300431E-001	-6.147120624121967E-001
-3.1206006E-001	-6.074182453254862E-001
-3.1101912E-001	-6.000979501340127E-001
-3.1009477E-001	-5.921832527326210E-001
-3.0896324E-001	-5.845683719962809E-001
-3.0797067E-001	-5.767449644152736E-001
-3.0700406E-001	-5.695791932946639E-001
-3.0598918E-001	-5.620026988563733E-001
-3.0501422E-001	-5.547387090132183E-001
-3.0399826E-001	-5.471047922783221E-001
-3.0302364E-001	-5.394175768036531E-001
-3.0192629E-001	-5.320550850420109E-001
-3.0101565E-001	-5.247752745988254E-001
-3.0007252E-001	-5.170452507833625E-001
-2.9899999E-001	-5.098155845232588E-001
-2.9800493E-001	-5.023524334591212E-001
-2.9702955E-001	-4.950210619717836E-001
-2.9599395E-001	-4.871697861839213E-001
-2.9504088E-001	-4.797015618592884E-001
-2.9400337E-001	-4.726508080407417E-001
-2.9299000E-001	-4.651010727168323E-001
-2.9207152E-001	-4.578066389593793E-001
-2.9100728E-001	-4.504107103717541E-001
-2.8989655E-001	-4.425059516937906E-001
-2.8881112E-001	-4.344244526216272E-001
-2.8766650E-001	-4.267048746071493E-001
-2.8676134E-001	-4.194738613401015E-001
-2.8587314E-001	-4.120107211034609E-001
-2.8471154E-001	-4.044850460357132E-001
-2.8364295E-001	-3.971080514666838E-001
-2.8268042E-001	-3.895522195293957E-001
-2.8183764E-001	-3.822979186489075E-001
-2.8074104E-001	-3.749081302923125E-001
-2.7968815E-001	-3.675594171164196E-001
-2.7878493E-001	-3.602976163642273E-001
-2.7776748E-001	-3.527583489687212E-001
-2.7673325E-001	-3.454227973189612E-001
-2.7579731E-001	-3.379111873261913E-001
-2.7475885E-001	-3.311117504035312E-001
-2.7374181E-001	-3.231209284384486E-001
-2.7270302E-001	-3.160081728947919E-001
-2.7170381E-001	-3.085321587458436E-001
-2.7060062E-001	-3.010731253910937E-001
-2.6973578E-001	-2.938207734238221E-001
-2.6885390E-001	-2.862797743672978E-001
-2.6770660E-001	-2.791440476559934E-001
-2.6674670E-001	-2.720782517421036E-001
-2.6573616E-001	-2.644245885507341E-001
-2.6487318E-001	-2.570765515168487E-001
-2.6367274E-001	-2.499508649041808E-001
-2.6270983E-001	-2.425490271070769E-001
-2.6176530E-001	-2.351192111080447E-001
-2.6075155E-001	-2.278829142106353E-001
-2.5972602E-001	-2.205754146129584E-001
-2.5889882E-001	-2.132368523765490E-001
-2.5768951E-001	-2.060769561126277E-001
-2.5662285E-001	-1.989276102052908E-001
-2.5575572E-001	-1.915494886364923E-001
-2.5480413E-001	-1.839975071898490E-001
-2.5367177E-001	-1.768648996326818E-001
-2.5273591E-001	-1.695219080860690E-001
-2.5171533E-001	-1.623758816643174E-001
-2.5066638E-001	-1.549090310464784E-001
-2.4973510E-001	-1.478704697176538E-001
-2.4875179E-001	-1.404075636499728E-001
-2.4768829E-001	-1.330849074896565E-001
-2.4680649E-001	-1.258997288360084E-001
-2.4583496E-001	-1.188975316527512E-001
-2.4471980E-001	-1.113255053448179E-001
-2.4372533E-001	-1.042101559988047E-001
-2.4296181E-001	-9.690482341504447E-002
-2.4175510E-001	-8.976901301907157E-002
-2.4083066E-001	-8.243854201605727E-002
-2.3969556E-001	-7.547361301886801E-002
-2.3881650E-001	-6.815474724431558E-002
-2.3774526E-001	-6.086297907556082E-002
-2.3664217E-001	-5.368199449582423E-002
-2.3571074E-001	-4.670039786853708E-002
-2.3464432E-001	-3.841408120656742E-002
-2.3344083E-001	-3.040860984693264E-002
-2.3245732E-001	-2.279359704590642E-002
-2.3156385E-001	-1.622413435338615E-002
-2.3042311E-001	-8.359702040773825E-003
-2.2937705E-001	-1.819430976714401E-003
-2.2852959E-001	5.665187056702367E-003
-2.2733471E-001	1.278708738464840E-002
-2.2651313E-001	2.015913426832952E-002
-2.2542426E-001	2.714225252512500E-002
-2.2449918E-001	3.448102947732962E-002
-2.2335412E-001	4.144154241118880E-002
-2.2227883E-001	4.894623281951582E-002
-2.2136286E-001	5.560945535782491E-002
-2.2037563E-001	6.309882322912674E-002
-2.1945350E-001	7.008978877975447E-002
-2.1833131E-001	7.731349755372338E-002
-2.1722172E-001	8.443191738937189E-002
-2.1630637E-001	9.151376866632022E-002
-2.1537282E-001	9.869065542213962E-002
-2.1438664E-001	1.059979113439721E-001
-2.1319589E-001	1.148155434998932E-001
-2.1225157E-001	1.218805118394948E-001
-2.1107022E-001	1.286915248363379E-001
-2.0999405E-001	1.359953122151076E-001
-2.0920880E-001	1.429410260688097E-001
-2.0810556E-001	1.500870895365051E-001
-2.0698605E-001	1.569853094874023E-001
-2.0610073E-001	1.640028484614080E-001
-2.0501187E-001	1.713466812615048E-001
-2.0404321E-001	1.782779232467924E-001
-2.0311905E-001	1.853287351248712E-001
-2.0210615E-001	1.922034994457604E-001
-2.0120677E-001	1.995056027213504E-001
-2.0014292E-001	2.062373069908325E-001
-1.9908799E-001	2.134024385293876E-001
-1.9809303E-001	2.203689318767497E-001
-1.9718499E-001	2.274110260661000E-001
-1.9607982E-001	2.343208401429422E-001
-1.9510251E-001	2.413497609798947E-001
-1.9404213E-001	2.482562113415314E-001
-1.9305828E-001	2.554356251601817E-001
-1.9213890E-001	2.620800374570758E-001
-1.9117755E-001	2.697450202303353E-001
-1.9016042E-001	2.763710672863660E-001
-1.8907484E-001	2.835570811377721E-001
-1.8812059E-001	2.903591143312281E-001
-1.8711849E-001	2.973907580254250E-001
-1.8620348E-001	3.040229943103410E-001
-1.8521550E-001	3.113918218209779E-001
-1.8410821E-001	3.182620386144634E-001
-1.8302530E-001	3.249901499148176E-001
-1.8222791E-001	3.313507692957365E-001
-1.8132848E-001	3.390138066477242E-001
-1.8021236E-001	3.460874302885517E-001
-1.7915906E-001	3.530893606237245E-001
-1.7809439E-001	3.595269215465677E-001
-1.7708640E-001	3.666064426518626E-001
-1.7621091E-001	3.731406201711964E-001
-1.7505120E-001	3.806794252660537E-001
-1.7406164E-001	3.873618529628973E-001
-1.7322710E-001	3.941328022629023E-001
-1.7219386E-001	4.009615680271814E-001
-1.7111883E-001	4.078724358893620E-001
-1.7011225E-001	4.150969568226071E-001
-1.6896378E-001	4.220057535502653E-001
-1.6813968E-001	4.286725465587056E-001
-1.6717809E-001	4.353818001432556E-001
-1.6616814E-001	4.424731568605829E-001
-1.6502796E-001	4.492577807746656E-001
-1.6401845E-001	4.561399982345336E-001
-1.6310652E-001	4.630192616195572E-001
-1.6216998E-001	4.697702677137627E-001
-1.6114476E-001	4.763967194766909E-001
-1.6002581E-001	4.832089452279940E-001
-1.5912044E-001	4.897236658887092E-001
-1.5817860E-001	4.972736447773576E-001
-1.5708145E-001	5.037251677652583E-001
-1.5593259E-001	5.104911845453355E-001
-1.5519524E-001	5.175442625251101E-001
-1.5409362E-001	5.242421194708502E-001
-1.5307140E-001	5.306936496937722E-001
-1.5212426E-001	5.377830671905386E-001
-1.5125453E-001	5.446121570504854E-001
-1.4992894E-001	5.514761709642642E-001
-1.4923997E-001	5.583445618825955E-001
-1.4823638E-001	5.651593858866217E-001
-1.4704828E-001	5.716720299312348E-001
-1.4616095E-001	5.788656473849658E-001
-1.4512196E-001	5.856049517784943E-001
-1.4419495E-001	5.925311967730531E-001
-1.4289016E-001	5.990976801625028E-001
-1.4214623E-001	6.058758608668597E-001
-1.4109004E-001	6.125299738789032E-001
-1.4016601E-001	6.191809080817068E-001
-1.3907820E-001	6.260245959304092E-001
-1.3799742E-001	6.327059721505179E-001
-1.3716610E-001	6.393868883864755E-001
-1.3609740E-001	6.460502069617942E-001
-1.3498949E-001	6.528868141963540E-001
-1.3412887E-001	6.595001131710072E-001
-1.3305084E-001	6.662726541204647E-001
-1.3207570E-001	6.730018237398723E-001
-1.3115272E-001	6.796232935869035E-001
-1.3015030E-001	6.866024205486569E-001
-1.2896609E-001	6.934351267086156E-001
-1.2815303E-001	6.997994496314597E-001
-1.2715548E-001	7.064702899811017E-001
-1.2594816E-001	7.131325583904973E-001
-1.2511346E-001	7.198642346732020E-001
-1.2410270E-001	7.260631641802853E-001
-1.2303460E-001	7.330191408594402E-001
-1.2202486E-001	7.392830204356606E-001
-1.2111257E-001	7.465892641119609E-001
-1.1993328E-001	7.527497212781942E-001
-1.1889429E-001	7.594174067317336E-001
-1.1809735E-001	7.657281262521440E-001
-1.1721530E-001	7.727342168628084E-001
-1.1611224E-001	7.791977862792994E-001
-1.1509212E-001	7.856485735691034E-001
-1.1408304E-001	7.924773429554932E-001
-1.1325657E-001	7.990171052515542E-001
-1.1207182E-001	8.055333071105562E-001
-1.1097726E-001	8.122770322693702E-001
-1.1016886E-001	8.185034913045390E-001
-1.0901466E-001	8.253267318860908E-001
-1.0804567E-001	8.317864824224426E-001
-1.0704868E-001	8.383332801361831E-001
-1.0596572E-001	8.449244438086314E-001
-1.0502518E-001	8.512726228822149E-001
-1.0401524E-001	8.580165190829199E-001
-1.0296415E-001	8.647510110101830E-001
-1.0199601E-001	8.709669289765518E-001
-1.0105946E-001	8.770821914076841E-001
-1.0000244E-001	8.832460081908267E-001
-9.9163689E-002	8.909262640884634E-001
-9.8149933E-002	8.964222887599895E-001
-9.7105183E-002	9.036449504635300E-001
-9.5952280E-002	9.099822332737642E-001
-9.5017441E-002	9.166244156658596E-001
-9.4116956E-002	9.228818771367848E-001
-9.3018986E-002	9.294801354408264E-001
-9.2030875E-002	9.359394793079492E-001
-9.1233082E-002	9.424207011858599E-001
-8.9958839E-002	9.492285631045192E-001
-8.8979848E-002	9.553693311721769E-001
-8.8153005E-002	9.614960919651701E-001
-8.7015152E-002	9.672632612012038E-001
-8.5973740E-002	9.748055664418729E-001
-8.5091151E-002	9.810309033426918E-001
-8.4026478E-002	9.875269718468189E-001
-8.2970530E-002	9.939669458244476E-001
-8.2086146E-002	1.000180352065300E+000
-8.1101023E-002	1.006565964194358E+000
-8.0060966E-002	1.012980974852823E+000
-7.9160690E-002	1.019294829004339E+000
-7.8005463E-002	1.025595192142105E+000
-7.7121824E-002	1.032387836231599E+000
-7.5993858E-002	1.038329731121107E+000
-7.4928336E-002	1.044605967623217E+000
-7.3946036E-002	1.050428754230794E+000
-7.3148802E-002	1.057430359776372E+000
-7.2251290E-002	1.064266934438995E+000
-7.1152143E-002	1.070122687819495E+000
-7.0028193E-002	1.076740981114128E+000
-6.8816736E-002	1.083328345031651E+000
-6.8063460E-002	1.089541825781165E+000
-6.7069016E-002	1.095608494072048E+000
-6.6103742E-002	1.103125749174893E+000
-6.4879216E-002	1.111159184187361E+000
-6.3904285E-002	1.116932408125312E+000
-6.2848099E-002	1.123152579974239E+000
-6.1950430E-002	1.129450064938275E+000
-6.0839687E-002	1.135637399361092E+000
-5.9831019E-002	1.142186168167328E+000
-5.8956720E-002	1.148618183391797E+000
-5.7826202E-002	1.154708400644635E+000
-5.6930177E-002	1.160420425098258E+000
-5.5848125E-002	1.167096161764864E+000
-5.4864053E-002	1.172949765153502E+000
-5.3960178E-002	1.179379944862044E+000
-5.2849062E-002	1.185958110151727E+000
-5.1874325E-002	1.192404234988818E+000
-5.0929088E-002	1.198101172568627E+000
-4.9939517E-002	1.204355028366466E+000
-4.8914935E-002	1.210785850744557E+000
-4.7883570E-002	1.217256152519468E+000
-4.6920091E-002	1.222813843253065E+000
-4.5884274E-002	1.228969542102682E+000
-4.4846892E-002	1.235410467880335E+000
-4.3817308E-002	1.241538507932862E+000
-4.2922549E-002	1.247528521551022E+000
-4.1825503E-002	1.253550399445817E+000
-4.0917311E-002	1.259610529161162E+000
-3.9965708E-002	1.266051658739651E+000
-3.8890898E-002	1.272341694500184E+000
-3.7834674E-002	1.278045313639774E+000
-3.6851037E-002	1.284347171032872E+000
-3.5920747E-002	1.290577743548154E+000
-3.4884196E-002	1.296485997460509E+000
-3.3915408E-002	1.302820886864705E+000
-3.2851659E-002	1.309060306984367E+000
-3.1965107E-002	1.315112964974508E+000
-3.0876895E-002	1.320528295718960E+000
-2.9905986E-002	1.326882742078869E+000
-2.8836228E-002	1.332621698992117E+000
-2.7921110E-002	1.339127778179114E+000
-2.6855750E-002	1.345535069564093E+000
-2.5865596E-002	1.351086774909945E+000
-2.4903812E-002	1.357232542087630E+000
-2.3935171E-002	1.362742803811202E+000
-2.2886902E-002	1.369701896828634E+000
-2.1936785E-002	1.375298746344116E+000
-2.0967135E-002	1.381411777103365E+000
-1.9931754E-002	1.387383976330362E+000
-1.8987576E-002	1.393290014178666E+000
-1.7844923E-002	1.399550210407135E+000
-1.6926123E-002	1.405390193340956E+000
-1.5929125E-002	1.411379677140049E+000
-1.4921445E-002	1.417472184924616E+000
-1.3915399E-002	1.423105909454602E+000
-1.2939400E-002	1.429055276844238E+000
-1.1875106E-002	1.435276800820155E+000
-1.0864581E-002	1.441187158226972E+000
-9.8989792E-003	1.446940333754927E+000
-8.9038908E-003	1.453168803182365E+000
-7.9179201E-003	1.459191961282933E+000
-6.9378912E-003	1.464892081226459E+000
-5.9144613E-003	1.470736177495258E+000
-4.9723187E-003	1.477120611402722E+000
-3.8620431E-003	1.482573466030534E+000
-2.9371232E-003	1.488673478857223E+000
-1.9658362E-003	1.494473289284443E+000
-9.1686606E-004	1.500308475146696E+000
1.0540197E-004	1.506369288283885E+000
1.1246477E-003	1.512056628173145E+000
2.0766752E-003	1.518198005579136E+000
3.0758756E-003	1.523911747749214E+000
4.1408865E-003	1.529975385025692E+000
5.1022479E-003	1.535644780430531E+000
6.0495259E-003	1.540817787110164E+000
6.6783554E-003	1.543663904070847E+000
6.8310872E-003	1.543250650167465E+000