EC-Lab ASCII FILE
Nb header lines : 63                          

Linear Sweep Voltammetry

Run on channel : 6 (SN 13765)
User : 
Electrode connection : standard
Potential control : Ewe
Ewe ctrl range : min = -2.50 V, max = 2.50 V
Ewe,I filtering : <None>
Safety Limits :
	Do not start on E overload
Channel : Floating
Acquisition started on : 07/17/2026 15:07:59.699
Technique started on : 07/17/2026 15:08:00.696
Loaded Setting File :  C:\Users\EEM-620\Desktop\Wade\abao\20260629\N719_0629-0-1_C06.mpr
Saved on :
	File : N719_0717-c-1_C06.mpr
	Directory : C:\Users\EEM-620\Desktop\Wade\abao\20260717\
	Host : 192.109.209.200
Device : VSP-300 (SN 0025)
Address : 192.109.209.129
EC-LAB for windows v11.62 (software)
Internet server v27.00 (firmware)
Command interpretor v12.02 (firmware)
Electrode material : Au/Pd
Initial state : 
Electrolyte : NaCl (0.2M)
Comments : Fe(CN)63-/Fe(CN)64- 5.10-3 M
Cable : ULC
Reference electrode : SCE Saturated Calomel Electrode (0.241 V)
Electrode surface area : 0.001 cm2
Characteristic mass : 0.001 g
Equivalent Weight : 0.000 g/eq.
Density : 0.000 g/cm3
Volume (V) : 0.001 cm3
Cycle Definition : Charge/Discharge alternance
tR (h:m:s)          0:00:5.0000         
dER/dt (mV/h)       0.0                 
dER (mV)            0                   
dtR (s)             0.0500              
dE/dt               10.000              
dE/dt unit          mV/s                
Ei (V)              -0.800              
vs.                 Ref                 
EL (V)              0.010               
vs.                 Ref                 
record              <I>                 
dI                  0.000               
unit dI             uA                  
tI (s)              0.0000              
step percent        50                  
N                   10                  
E range min (V)     -2.500              
E range max (V)     2.500               
I Range             Auto                
I Range min         Unset               
I Range max         Unset               
I Range init        Unset               
Bandwidth           8                   

Ewe/V	<I>/mA	
-2.2875998E-002	0.000000000000000E+000
-2.3494560E-002	0.000000000000000E+000
-2.2448348E-002	0.000000000000000E+000
-2.2784358E-002	0.000000000000000E+000
-2.1360135E-002	0.000000000000000E+000
-2.3005819E-002	0.000000000000000E+000
-2.2085613E-002	0.000000000000000E+000
-2.3131823E-002	0.000000000000000E+000
-2.2585809E-002	0.000000000000000E+000
-2.2730902E-002	0.000000000000000E+000
-2.1780148E-002	0.000000000000000E+000
-2.2494169E-002	0.000000000000000E+000
-2.3410559E-002	0.000000000000000E+000
-2.2196341E-002	0.000000000000000E+000
-2.2429258E-002	0.000000000000000E+000
-2.3578564E-002	0.000000000000000E+000
-2.1875605E-002	0.000000000000000E+000
-2.1505229E-002	0.000000000000000E+000
-2.1963427E-002	0.000000000000000E+000
-2.1627415E-002	0.000000000000000E+000
-2.1440320E-002	0.000000000000000E+000
-2.1493778E-002	0.000000000000000E+000
-2.1913789E-002	0.000000000000000E+000
-2.3219643E-002	0.000000000000000E+000
-2.3269281E-002	0.000000000000000E+000
-2.2761449E-002	0.000000000000000E+000
-2.2608718E-002	0.000000000000000E+000
-2.1944335E-002	0.000000000000000E+000
-2.2169612E-002	0.000000000000000E+000
-2.1417411E-002	0.000000000000000E+000
-2.1470865E-002	0.000000000000000E+000
-2.2696538E-002	0.000000000000000E+000
-2.2574354E-002	0.000000000000000E+000
-2.2158159E-002	0.000000000000000E+000
-2.2486532E-002	0.000000000000000E+000
-2.2410166E-002	0.000000000000000E+000
-2.2753812E-002	0.000000000000000E+000
-2.2333799E-002	0.000000000000000E+000
-2.0520112E-002	0.000000000000000E+000
-2.2799632E-002	0.000000000000000E+000
-2.1993972E-002	0.000000000000000E+000
-2.1776330E-002	0.000000000000000E+000
-2.2123795E-002	0.000000000000000E+000
-2.0100098E-002	0.000000000000000E+000
-2.1875605E-002	0.000000000000000E+000
-2.1745782E-002	0.000000000000000E+000
-2.2555262E-002	0.000000000000000E+000
-2.0203194E-002	0.000000000000000E+000
-2.2929454E-002	0.000000000000000E+000
-2.0711025E-002	0.000000000000000E+000
-2.2066519E-002	0.000000000000000E+000
-2.3105096E-002	0.000000000000000E+000
-2.4090214E-002	0.000000000000000E+000
-2.3280738E-002	0.000000000000000E+000
-2.1157766E-002	0.000000000000000E+000
-2.3009637E-002	0.000000000000000E+000
-2.1554869E-002	0.000000000000000E+000
-2.2158159E-002	0.000000000000000E+000
-2.1352500E-002	0.000000000000000E+000
-2.1402135E-002	0.000000000000000E+000
-2.1833604E-002	0.000000000000000E+000
-2.7328128E-002	0.000000000000000E+000
-2.7087575E-002	0.000000000000000E+000
-7.8950900E-001	-2.497822645637724E-001
-7.8894877E-001	-2.512560418151599E-001
-7.8801537E-001	-2.444590850974677E-001
-7.8736061E-001	-2.389838896308341E-001
-7.8649038E-001	-2.346164554150560E-001
-7.8549403E-001	-2.311079705272014E-001
-7.8386027E-001	-2.279500237910079E-001
-7.8299195E-001	-2.252142296897032E-001
-7.8224516E-001	-2.227171381797499E-001
-7.8080428E-001	-2.204757642636048E-001
-7.8007203E-001	-2.183203017684034E-001
-7.7931136E-001	-2.164046233519903E-001
-7.7798086E-001	-2.144770393082074E-001
-7.7731138E-001	-2.126437385256099E-001
-7.7621853E-001	-2.110108663778458E-001
-7.7534050E-001	-2.094479838938064E-001
-7.7422911E-001	-2.079219781552188E-001
-7.7300763E-001	-2.064427042665908E-001
-7.7203178E-001	-2.049592941723484E-001
-7.7064109E-001	-2.036361314218356E-001
-7.6982248E-001	-2.022097873839099E-001
-7.6922518E-001	-2.008460992257342E-001
-7.6822960E-001	-1.995468285900565E-001
-7.6675212E-001	-1.983088520019292E-001
-7.6585948E-001	-1.970292507429365E-001
-7.6478302E-001	-1.958222271598598E-001
-7.6419306E-001	-1.946265780038514E-001
-7.6260269E-001	-1.934554786076426E-001
-7.6197630E-001	-1.922947569541904E-001
-7.6088041E-001	-1.911211827148995E-001
-7.6027310E-001	-1.899925742332857E-001
-7.5915480E-001	-1.889469134081878E-001
-7.5828481E-001	-1.878896604154123E-001
-7.5719428E-001	-1.867842537143991E-001
-7.5625402E-001	-1.856260248033461E-001
-7.5463557E-001	-1.846555528679383E-001
-7.5424337E-001	-1.835352985222860E-001
-7.5272423E-001	-1.825491991216630E-001
-7.5168318E-001	-1.815016946789840E-001
-7.5115556E-001	-1.805814126619660E-001
-7.4999118E-001	-1.795320235606697E-001
-7.4916446E-001	-1.786086341814590E-001
-7.4817371E-001	-1.776089267920957E-001
-7.4726671E-001	-1.765865880858000E-001
-7.4608690E-001	-1.756428069504044E-001
-7.4539620E-001	-1.747386984867756E-001
-7.4447054E-001	-1.737828915248860E-001
-7.4353993E-001	-1.728894439939814E-001
-7.4218053E-001	-1.719455874937837E-001
-7.4121857E-001	-1.710254246782921E-001
-7.4045134E-001	-1.701469233052597E-001
-7.3920083E-001	-1.692278793999469E-001
-7.3811883E-001	-1.683197884682426E-001
-7.3688453E-001	-1.674934776684688E-001
-7.3615235E-001	-1.665823444620596E-001
-7.3553944E-001	-1.657275278121232E-001
-7.3441947E-001	-1.648922078587103E-001
-7.3312086E-001	-1.639971424722011E-001
-7.3224241E-001	-1.631898243773589E-001
-7.3108691E-001	-1.623238326249610E-001
-7.3080838E-001	-1.615217179577380E-001
-7.2925526E-001	-1.607742711936164E-001
-7.2813880E-001	-1.598901571243301E-001
-7.2680563E-001	-1.590046923849044E-001
-7.2626472E-001	-1.581802654631985E-001
-7.2474170E-001	-1.574839183223851E-001
-7.2386909E-001	-1.566785531187498E-001
-7.2268587E-001	-1.558782585056735E-001
-7.2162759E-001	-1.550439998197053E-001
-7.2095042E-001	-1.543640315670656E-001
-7.1992755E-001	-1.535571552530783E-001
-7.1917349E-001	-1.527492209441128E-001
-7.1808845E-001	-1.519597813107634E-001
-7.1706599E-001	-1.512629221759270E-001
-7.1591341E-001	-1.504487662265690E-001
-7.1547180E-001	-1.497283301281704E-001
-7.1445322E-001	-1.489719715970010E-001
-7.1316898E-001	-1.482730160674279E-001
-7.1228832E-001	-1.475562005402727E-001
-7.1057296E-001	-1.467753481809742E-001
-7.1052694E-001	-1.460860715489147E-001
-7.0902872E-001	-1.453111728645862E-001
-7.0844132E-001	-1.446425959088464E-001
-7.0729136E-001	-1.439021515694474E-001
-7.0637977E-001	-1.431816785340578E-001
-7.0544684E-001	-1.424754895787279E-001
-7.0382982E-001	-1.417419283857775E-001
-7.0336199E-001	-1.410580557250940E-001
-7.0190245E-001	-1.403957734022423E-001
-7.0110101E-001	-1.397003431597521E-001
-7.0051491E-001	-1.389284839159273E-001
-6.9928914E-001	-1.383236759273263E-001
-6.9827187E-001	-1.376459269811836E-001
-6.9720596E-001	-1.369633363835789E-001
-6.9622618E-001	-1.362645673324114E-001
-6.9539857E-001	-1.355636826238724E-001
-6.9440478E-001	-1.349826321109304E-001
-6.9322813E-001	-1.342586438964911E-001
-6.9236314E-001	-1.336033649447457E-001
-6.9119471E-001	-1.330158458332775E-001
-6.9042122E-001	-1.323724220403366E-001
-6.8919545E-001	-1.316781616571172E-001
-6.8826181E-001	-1.310505982902312E-001
-6.8706697E-001	-1.304411732943612E-001
-6.8577188E-001	-1.297952375995614E-001
-6.8546301E-001	-1.291219300280017E-001
-6.8386853E-001	-1.285346022976521E-001
-6.8301994E-001	-1.279093922564276E-001
-6.8200088E-001	-1.272330893617531E-001
-6.8064928E-001	-1.266105062258567E-001
-6.8033886E-001	-1.259944015527488E-001
-6.7900473E-001	-1.254216184908592E-001
-6.7828715E-001	-1.247796070768472E-001
-6.7712039E-001	-1.241114247521313E-001
-6.7583054E-001	-1.236177925537858E-001
-6.7526942E-001	-1.230053007002804E-001
-6.7383397E-001	-1.224168474372058E-001
-6.7300385E-001	-1.217319428924384E-001
-6.7197937E-001	-1.211920505113628E-001
-6.7125583E-001	-1.206390293728976E-001
-6.7027819E-001	-1.200238339305224E-001
-6.6882157E-001	-1.194304921319365E-001
-6.6814899E-001	-1.188617207592835E-001
-6.6715449E-001	-1.183038086529606E-001
-6.6599840E-001	-1.177058480507522E-001
-6.6507310E-001	-1.171390900767786E-001
-6.6432005E-001	-1.165869187328787E-001
-6.6317284E-001	-1.159969993384073E-001
-6.6239351E-001	-1.154412198121898E-001
-6.6063160E-001	-1.149086807741995E-001
-6.6008556E-001	-1.143761813054206E-001
-6.5880919E-001	-1.137511256855803E-001
-6.5876490E-001	-1.132403126814299E-001
-6.5713614E-001	-1.126813495669652E-001
-6.5677124E-001	-1.121607268712691E-001
-6.5497029E-001	-1.115800040187662E-001
-6.5476495E-001	-1.110616775436537E-001
-6.5331036E-001	-1.105297777269159E-001
-6.5244925E-001	-1.100315553377627E-001
-6.5098572E-001	-1.094309616730442E-001
-6.5045798E-001	-1.088940901917312E-001
-6.4927000E-001	-1.083292449583059E-001
-6.4815956E-001	-1.078371347307605E-001
-6.4747781E-001	-1.072866158580914E-001
-6.4601642E-001	-1.067854415935776E-001
-6.4501774E-001	-1.062297911162203E-001
-6.4398092E-001	-1.057759260896733E-001
-6.4341873E-001	-1.052356190048158E-001
-6.4189035E-001	-1.047483796166713E-001
-6.4159399E-001	-1.041966951279734E-001
-6.4012462E-001	-1.037507544582084E-001
-6.3895667E-001	-1.032000256663283E-001
-6.3841826E-001	-1.027251082231051E-001
-6.3717055E-001	-1.021875603193487E-001
-6.3618565E-001	-1.017389998432372E-001
-6.3512498E-001	-1.012357794507235E-001
-6.3381064E-001	-1.006750042832181E-001
-6.3311779E-001	-1.002103960210530E-001
-6.3188320E-001	-9.974975852916590E-002
-6.3118702E-001	-9.927252731966735E-002
-6.3007295E-001	-9.874624241557384E-002
-6.2903774E-001	-9.829189181672726E-002
-6.2845016E-001	-9.782376152765311E-002
-6.2712604E-001	-9.737295916959399E-002
-6.2629324E-001	-9.684299925100781E-002
-6.2507063E-001	-9.642471758247906E-002
-6.2466854E-001	-9.595930679804721E-002
-6.2325621E-001	-9.547740529739723E-002
-6.2239182E-001	-9.497707305534561E-002
-6.2100685E-001	-9.449853712727321E-002
-6.1991334E-001	-9.401168467142762E-002
-6.1930150E-001	-9.358182554650633E-002
-6.1859876E-001	-9.314245450379444E-002
-6.1682093E-001	-9.267543702904923E-002
-6.1643893E-001	-9.220142257227382E-002
-6.1513579E-001	-9.175465764753810E-002
-6.1465639E-001	-9.132240970703576E-002
-6.1342835E-001	-9.088025686193157E-002
-6.1204129E-001	-9.042888515008052E-002
-6.1110002E-001	-9.000024740750701E-002
-6.1045218E-001	-8.958602420709827E-002
-6.0945129E-001	-8.908249005498980E-002
-6.0833436E-001	-8.867418714281544E-002
-6.0672599E-001	-8.817156847497420E-002
-6.0656726E-001	-8.780394137873770E-002
-6.0547680E-001	-8.734105118653845E-002
-6.0437882E-001	-8.686845781523067E-002
-6.0335803E-001	-8.646812339588611E-002
-6.0186231E-001	-8.603018374803140E-002
-6.0113162E-001	-8.556091538802879E-002
-6.0031331E-001	-8.516857053073984E-002
-5.9931594E-001	-8.477951398257311E-002
-5.9849399E-001	-8.432954637747608E-002
-5.9706122E-001	-8.393703625138516E-002
-5.9659630E-001	-8.349674775403104E-002
-5.9530866E-001	-8.314343484651304E-002
-5.9428304E-001	-8.270937912338591E-002
-5.9302342E-001	-8.225144478664909E-002
-5.9172726E-001	-8.187574190577762E-002
-5.9116411E-001	-8.142084586089138E-002
-5.9002352E-001	-8.107713023545549E-002
-5.8925414E-001	-8.062555128884297E-002
-5.8855116E-001	-8.025260099761733E-002
-5.8734113E-001	-7.985234207094288E-002
-5.8625460E-001	-7.945839390951376E-002
-5.8490086E-001	-7.911070249112395E-002
-5.8411574E-001	-7.859776992592293E-002
-5.8365160E-001	-7.827009214575723E-002
-5.8174860E-001	-7.783675396435519E-002
-5.8093530E-001	-7.748761034682827E-002
-5.7978052E-001	-7.715093288398162E-002
-5.7947868E-001	-7.672444641314147E-002
-5.7862657E-001	-7.633542260746040E-002
-5.7750398E-001	-7.592604119606561E-002
-5.7626933E-001	-7.553426140091474E-002
-5.7523406E-001	-7.520452691652757E-002
-5.7398474E-001	-7.479974748221796E-002
-5.7342350E-001	-7.449781843806019E-002
-5.7287860E-001	-7.410487469559524E-002
-5.7170320E-001	-7.371546333241789E-002
-5.7034516E-001	-7.334544640880958E-002
-5.6948173E-001	-7.299372458106113E-002
-5.6799728E-001	-7.264736187816767E-002
-5.6699687E-001	-7.226518031314577E-002
-5.6616193E-001	-7.189749251982097E-002
-5.6514263E-001	-7.154437220931326E-002
-5.6410754E-001	-7.119803916661002E-002
-5.6346411E-001	-7.086957482345135E-002
-5.6230354E-001	-7.050576693964761E-002
-5.6114447E-001	-7.011144699021143E-002
-5.6028807E-001	-6.974653641831274E-002
-5.5912161E-001	-6.939783697533904E-002
-5.5814928E-001	-6.907657008196710E-002
-5.5727208E-001	-6.868653699617699E-002
-5.5613661E-001	-6.837066016435478E-002
-5.5506128E-001	-6.804186597259498E-002
-5.5419773E-001	-6.766521012307014E-002
-5.5326253E-001	-6.736893060838589E-002
-5.5234927E-001	-6.698849567867504E-002
-5.5067408E-001	-6.663733517268211E-002
-5.5036175E-001	-6.636346303350271E-002
-5.4894501E-001	-6.600026814784446E-002
-5.4828447E-001	-6.569861368862551E-002
-5.4722917E-001	-6.535235266141548E-002
-5.4615384E-001	-6.506645692408909E-002
-5.4498398E-001	-6.470803673275616E-002
-5.4460359E-001	-6.436415021450231E-002
-5.4350710E-001	-6.410573925650542E-002
-5.4154849E-001	-6.371823668693097E-002
-5.4121828E-001	-6.338323520806932E-002
-5.4013497E-001	-6.311709950333078E-002
-5.3876895E-001	-6.278344326014251E-002
-5.3812313E-001	-6.242829416361140E-002
-5.3695875E-001	-6.210557876706657E-002
-5.3628272E-001	-6.184647774465346E-002
-5.3516120E-001	-6.153662651949743E-002
-5.3424484E-001	-6.116136699845920E-002
-5.3342003E-001	-6.091097291613956E-002
-5.3232676E-001	-6.059050203852893E-002
-5.3090179E-001	-6.025485908835637E-002
-5.3033340E-001	-6.001417476821813E-002
-5.2938432E-001	-5.960364694948561E-002
-5.2822685E-001	-5.935017356031372E-002
-5.2743149E-001	-5.902653347045461E-002
-5.2630126E-001	-5.875093613199334E-002
-5.2544320E-001	-5.844552199915132E-002
-5.2378309E-001	-5.820296791002710E-002
-5.2363521E-001	-5.789682910674143E-002
-5.2249140E-001	-5.758538820183721E-002
-5.2128446E-001	-5.734417444370976E-002
-5.2034682E-001	-5.699268600006624E-002
-5.1938748E-001	-5.674474175623767E-002
-5.1788127E-001	-5.642368280570272E-002
-5.1731569E-001	-5.610966647047663E-002
-5.1620632E-001	-5.588446769656419E-002
-5.1495606E-001	-5.558091978956448E-002
-5.1434135E-001	-5.533505666911342E-002
-5.1291627E-001	-5.505885280392797E-002
-5.1239294E-001	-5.474657730061439E-002
-5.1117235E-001	-5.447451195173147E-002
-5.0981408E-001	-5.421307150067534E-002
-5.0910628E-001	-5.391721720634768E-002
-5.0787103E-001	-5.364590523655230E-002
-5.0730866E-001	-5.337382692636716E-002
-5.0619656E-001	-5.316497872042081E-002
-5.0513226E-001	-5.288880337374613E-002
-5.0415075E-001	-5.265094081146848E-002
-5.0341243E-001	-5.237892788968146E-002
-5.0190324E-001	-5.205698575203610E-002
-5.0127983E-001	-5.181765705519537E-002
-5.0002593E-001	-5.149826719160039E-002
-4.9931228E-001	-5.125173646094361E-002
-4.9851939E-001	-5.107624623579565E-002
-4.9745730E-001	-5.080948886287961E-002
-4.9620867E-001	-5.054157438550022E-002
-4.9488261E-001	-5.028551732431402E-002
-4.9444759E-001	-5.009031726534480E-002
-4.9275801E-001	-4.980617762474289E-002
-4.9236223E-001	-4.949927094266016E-002
-4.9084285E-001	-4.927177211545697E-002
-4.9018532E-001	-4.905941520162216E-002
-4.8914021E-001	-4.877722175832111E-002
-4.8810479E-001	-4.856311616970727E-002
-4.8715782E-001	-4.830318459965033E-002
-4.8604205E-001	-4.811312333123469E-002
-4.8522300E-001	-4.779324192915957E-002
-4.8463029E-001	-4.764144247208080E-002
-4.8333371E-001	-4.736708611806395E-002
-4.8206717E-001	-4.708705187982154E-002
-4.8164740E-001	-4.686109106815262E-002
-4.8000023E-001	-4.664679069593936E-002
-4.7966310E-001	-4.641332541575183E-002
-4.7830212E-001	-4.618548026177893E-002
-4.7770077E-001	-4.604090852835396E-002
-4.7635034E-001	-4.569550198330372E-002
-4.7544542E-001	-4.553278369884484E-002
-4.7445264E-001	-4.530309443793212E-002
-4.7344384E-001	-4.497265341989154E-002
-4.7192678E-001	-4.484775014880804E-002
-4.7104698E-001	-4.463114782184774E-002
-4.7026506E-001	-4.441631560757581E-002
-4.6929517E-001	-4.419565280571724E-002
-4.6804473E-001	-4.396884172671925E-002
-4.6701053E-001	-4.374773552868128E-002
-4.6593040E-001	-4.354546506699447E-002
-4.6481696E-001	-4.332842040134399E-002
-4.6414050E-001	-4.312930919263130E-002
-4.6296826E-001	-4.290145352327590E-002
-4.6226361E-001	-4.269826428585299E-002
-4.6096483E-001	-4.247154561367883E-002
-4.6024650E-001	-4.227979796835124E-002
-4.5903376E-001	-4.205867598109225E-002
-4.5773125E-001	-4.186352662256215E-002
-4.5708558E-001	-4.164750879647688E-002
-4.5588329E-001	-4.143274246017400E-002
-4.5484039E-001	-4.125444201269625E-002
-4.5403114E-001	-4.104561988195321E-002
-4.5268995E-001	-4.083689983065625E-002
-4.5187232E-001	-4.063325361521163E-002
-4.5110977E-001	-4.044678701622473E-002
-4.5000091E-001	-4.023836279627302E-002
-4.4876295E-001	-4.005687299650158E-002
-4.4780266E-001	-3.984241987388870E-002
-4.4733864E-001	-3.964791752810809E-002
-4.4615483E-001	-3.945224310047218E-002
-4.4507891E-001	-3.927688936799156E-002
-4.4437170E-001	-3.906965279882704E-002
-4.4257858E-001	-3.889292875666994E-002
-4.4174021E-001	-3.871980697182753E-002
-4.4094944E-001	-3.850997177263082E-002
-4.4010943E-001	-3.832552195699108E-002
-4.3908975E-001	-3.814075145085138E-002
-4.3778029E-001	-3.795885417558664E-002
-4.3723762E-001	-3.776878170686343E-002
-4.3569309E-001	-3.759463254440754E-002
-4.3515521E-001	-3.738778475585765E-002
-4.3397173E-001	-3.721207795940609E-002
-4.3287045E-001	-3.704495828878374E-002
-4.3176496E-001	-3.685618097531707E-002
-4.3101487E-001	-3.669104416014068E-002
-4.3014643E-001	-3.649859903466515E-002
-4.2878187E-001	-3.633561447969891E-002
-4.2793125E-001	-3.616159312405209E-002
-4.2648596E-001	-3.598744443324554E-002
-4.2570171E-001	-3.581686248071481E-002
-4.2486617E-001	-3.563315084983323E-002
-4.2457238E-001	-3.547289351829208E-002
-4.2287707E-001	-3.530206996516361E-002
-4.2217293E-001	-3.511811070508840E-002
-4.2088479E-001	-3.497884771786622E-002
-4.1988608E-001	-3.478870056224637E-002
-4.1930547E-001	-3.462038854202287E-002
-4.1855919E-001	-3.445364809939988E-002
-4.1690817E-001	-3.430129689778338E-002
-4.1593862E-001	-3.413005862212570E-002
-4.1482154E-001	-3.396160592738956E-002
-4.1396636E-001	-3.380045326353609E-002
-4.1293865E-001	-3.364160218000123E-002
-4.1193211E-001	-3.348847487682684E-002
-4.1120091E-001	-3.331884763034827E-002
-4.1013542E-001	-3.315946921982155E-002
-4.0925825E-001	-3.300791501102063E-002
-4.0813485E-001	-3.285768591854718E-002
-4.0645030E-001	-3.270329264234062E-002
-4.0592802E-001	-3.252794253989783E-002
-4.0523148E-001	-3.238715944139073E-002
-4.0431398E-001	-3.223390132188801E-002
-4.0307078E-001	-3.208514327761108E-002
-4.0241736E-001	-3.192998785784268E-002
-4.0135884E-001	-3.177221949833148E-002
-4.0053108E-001	-3.162160102779682E-002
-3.9921913E-001	-3.148997861771247E-002
-3.9822683E-001	-3.132949330568030E-002
-3.9669022E-001	-3.117217017063639E-002
-3.9576250E-001	-3.104535977494099E-002
-3.9508685E-001	-3.089375341207623E-002
-3.9430171E-001	-3.073691485227237E-002
-3.9335531E-001	-3.058321229440880E-002
-3.9214298E-001	-3.044886800866586E-002
-3.9106113E-001	-3.030857169586754E-002
-3.8981825E-001	-3.018283956528944E-002
-3.8919237E-001	-3.002082246265114E-002
-3.8781956E-001	-2.989194336502497E-002
-3.8711530E-001	-2.973601781694149E-002
-3.8606533E-001	-2.959409648257660E-002
-3.8539982E-001	-2.946228416274388E-002
-3.8362986E-001	-2.931147559407948E-002
-3.8251042E-001	-2.918208547998935E-002
-3.8234925E-001	-2.905392554950792E-002
-3.8163334E-001	-2.889363741484929E-002
-3.8016623E-001	-2.878819209869916E-002
-3.7887862E-001	-2.863979172306487E-002
-3.7825790E-001	-2.850327764337590E-002
-3.7701678E-001	-2.836682278818139E-002
-3.7615699E-001	-2.823050038164676E-002
-3.7519425E-001	-2.810069148973954E-002
-3.7398019E-001	-2.795866492670025E-002
-3.7372059E-001	-2.783290119582994E-002
-3.7196529E-001	-2.770879949580318E-002
-3.7102333E-001	-2.757445391250288E-002
-3.7024313E-001	-2.743747191400170E-002
-3.6906257E-001	-2.731479404289211E-002
-3.6725360E-001	-2.719500466439589E-002
-3.6728308E-001	-2.706488085512399E-002
-3.6566779E-001	-2.693016364032186E-002
-3.6496392E-001	-2.679344463265596E-002
-3.6403236E-001	-2.667748499569156E-002
-3.6294577E-001	-2.657070873667372E-002
-3.6173788E-001	-2.641091302157966E-002
-3.6123312E-001	-2.629783911648351E-002
-3.6015627E-001	-2.618495204606673E-002
-3.5901186E-001	-2.606560658939462E-002
-3.5812950E-001	-2.592668841010504E-002
-3.5739714E-001	-2.580670750251518E-002
-3.5567001E-001	-2.568260350057644E-002
-3.5485682E-001	-2.555471381680974E-002
-3.5390189E-001	-2.544803158121389E-002
-3.5319716E-001	-2.532232728860523E-002
-3.5190216E-001	-2.521119449994770E-002
-3.5078642E-001	-2.508236889951609E-002
-3.4994712E-001	-2.496101106419168E-002
-3.4907112E-001	-2.484145266848992E-002
-3.4793329E-001	-2.471876575145870E-002
-3.4725478E-001	-2.461519016487795E-002
-3.4584892E-001	-2.449638496101325E-002
-3.4516925E-001	-2.437007307135330E-002
-3.4395915E-001	-2.424976919878519E-002
-3.4308955E-001	-2.413630309402601E-002
-3.4240204E-001	-2.402262311187325E-002
-3.4110594E-001	-2.390412952141285E-002
-3.3992717E-001	-2.379247084846375E-002
-3.3897391E-001	-2.368421795244124E-002
-3.3771977E-001	-2.357176243525899E-002
-3.3707425E-001	-2.344118228777207E-002
-3.3619973E-001	-2.334465952332182E-002
-3.3530214E-001	-2.324126761501505E-002
-3.3386946E-001	-2.311758414186804E-002
-3.3298385E-001	-2.300156777908635E-002
-3.3224308E-001	-2.288392156198679E-002
-3.3145416E-001	-2.277224143768694E-002
-3.3054402E-001	-2.268286060197005E-002
-3.2917738E-001	-2.256393079921877E-002
-3.2778800E-001	-2.246142968744339E-002
-3.2736731E-001	-2.234404226247633E-002
-3.2581604E-001	-2.223710593319050E-002
-3.2500699E-001	-2.212903266471568E-002
-3.2389987E-001	-2.201546763320006E-002
-3.2334647E-001	-2.190584595815304E-002
-3.2165021E-001	-2.179896482756113E-002
-3.2112482E-001	-2.169551899337589E-002
-3.1979206E-001	-2.159771299489799E-002
-3.1896988E-001	-2.148178823823199E-002
-3.1794080E-001	-2.136799567853342E-002
-3.1679639E-001	-2.127032200762730E-002
-3.1583357E-001	-2.117263532844003E-002
-3.1508452E-001	-2.105464756109371E-002
-3.1397915E-001	-2.096025675244226E-002
-3.1310385E-001	-2.085170297046984E-002
-3.1199169E-001	-2.075551613665154E-002
-3.1044042E-001	-2.065417687907117E-002
-3.0987272E-001	-2.053832970085309E-002
-3.0923554E-001	-2.043498113225391E-002
-3.0779293E-001	-2.033105633886481E-002
-3.0714670E-001	-2.023170579276573E-002
-3.0629840E-001	-2.013101046301288E-002
-3.0484301E-001	-2.001770711516776E-002
-3.0446583E-001	-1.994641849564177E-002
-3.0303907E-001	-1.984219478779573E-002
-3.0174020E-001	-1.972700146738532E-002
-3.0123472E-001	-1.962889705275842E-002
-3.0006209E-001	-1.952253527102604E-002
-2.9901901E-001	-1.944177721290741E-002
-2.9821700E-001	-1.932497290221766E-002
-2.9737246E-001	-1.921625651843636E-002
-2.9615068E-001	-1.912732783886089E-002
-2.9542625E-001	-1.904712121338692E-002
-2.9407361E-001	-1.893359454326013E-002
-2.9296833E-001	-1.883857708458821E-002
-2.9256126E-001	-1.873319252195801E-002
-2.9102305E-001	-1.865818772138850E-002
-2.8917739E-001	-1.854304396073084E-002
-2.8854591E-001	-1.844485842460623E-002
-2.8801662E-001	-1.834234588184502E-002
-2.8688622E-001	-1.826031466178527E-002
-2.8613350E-001	-1.815815094882175E-002
-2.8472677E-001	-1.806045720500321E-002
-2.8424692E-001	-1.797453842893310E-002
-2.8305492E-001	-1.787111118965701E-002
-2.8202593E-001	-1.779253600182494E-002
-2.8128093E-001	-1.767104121649432E-002
-2.8055266E-001	-1.758424796011088E-002
-2.7927294E-001	-1.748002834264531E-002
-2.7809498E-001	-1.741032090676184E-002
-2.7693787E-001	-1.730872556858071E-002
-2.7627897E-001	-1.721418146000897E-002
-2.7538979E-001	-1.713779321164965E-002
-2.7407435E-001	-1.703919279518430E-002
-2.7317789E-001	-1.693780214042862E-002
-2.7198496E-001	-1.684152757228186E-002
-2.7114144E-001	-1.675179015189687E-002
-2.7000490E-001	-1.666211339222537E-002
-2.6933509E-001	-1.656134255407911E-002
-2.6829687E-001	-1.647783284230783E-002
-2.6736009E-001	-1.638347530496059E-002
-2.6618689E-001	-1.629671834262747E-002
-2.6515651E-001	-1.620894865805482E-002
-2.6391003E-001	-1.611773859002387E-002
-2.6294845E-001	-1.602325464410259E-002
-2.6209870E-001	-1.593767513555513E-002
-2.6073739E-001	-1.585213219170406E-002
-2.5974980E-001	-1.577010224961373E-002
-2.5888643E-001	-1.567873873756503E-002
-2.5811529E-001	-1.558065125128495E-002
-2.5733709E-001	-1.549214801397519E-002
-2.5584921E-001	-1.540651860974590E-002
-2.5546426E-001	-1.531883931744099E-002
-2.5356904E-001	-1.524229480936712E-002
-2.5323388E-001	-1.515079990106949E-002
-2.5202981E-001	-1.504895044800331E-002
-2.5144458E-001	-1.495056936983025E-002
-2.4996313E-001	-1.488801014557156E-002
-2.4943486E-001	-1.479113939933958E-002
-2.4820052E-001	-1.469375435650971E-002
-2.4736042E-001	-1.461306110256395E-002
-2.4591844E-001	-1.453268092936238E-002
-2.4503767E-001	-1.445485485062283E-002
-2.4430844E-001	-1.435264893214855E-002
-2.4316864E-001	-1.428653188567193E-002
-2.4253076E-001	-1.419281178041948E-002
-2.4111569E-001	-1.411582607986420E-002
-2.4009301E-001	-1.401603724419448E-002
-2.3892143E-001	-1.394615950131856E-002
-2.3824750E-001	-1.386135943468672E-002
-2.3695479E-001	-1.377019715814468E-002
-2.3594345E-001	-1.369253972613341E-002
-2.3513494E-001	-1.359874293363341E-002
-2.3361167E-001	-1.352499947986666E-002
-2.3266436E-001	-1.345111563318482E-002
-2.3204912E-001	-1.336207723296763E-002
-2.3151036E-001	-1.329000236000866E-002
-2.2989066E-001	-1.319559453378227E-002
-2.2884920E-001	-1.312466177666838E-002
-2.2790416E-001	-1.302835576158642E-002
-2.2707249E-001	-1.294835060340452E-002
-2.2617450E-001	-1.287507977879912E-002
-2.2504404E-001	-1.279856568133392E-002
-2.2431095E-001	-1.269934269786704E-002
-2.2287673E-001	-1.263860446676890E-002
-2.2218400E-001	-1.255317799580338E-002
-2.2094660E-001	-1.246763277514322E-002
-2.2014454E-001	-1.239334713426177E-002
-2.1872681E-001	-1.231397773511868E-002
-2.1799611E-001	-1.222996490994574E-002
-2.1712808E-001	-1.214518621607030E-002
-2.1602196E-001	-1.206969126008584E-002
-2.1524099E-001	-1.197676186523119E-002
-2.1455011E-001	-1.191613930967395E-002
-2.1306776E-001	-1.183041782101399E-002
-2.1173221E-001	-1.176270427337539E-002
-2.1124896E-001	-1.167561597594131E-002
-2.0995988E-001	-1.160247040011370E-002
-2.0898683E-001	-1.151868480977733E-002
-2.0830351E-001	-1.144461280422182E-002
-2.0714876E-001	-1.138994164540677E-002
-2.0610063E-001	-1.128580373673083E-002
-2.0490797E-001	-1.122379106806995E-002
-2.0390533E-001	-1.113949301631054E-002
-2.0321678E-001	-1.107148215373011E-002
-2.0189556E-001	-1.100113742443265E-002
-2.0108044E-001	-1.092300019054503E-002
-2.0021112E-001	-1.084271528331248E-002
-1.9886160E-001	-1.076343913583967E-002
-1.9801775E-001	-1.069472478896688E-002
-1.9711107E-001	-1.061722640349287E-002
-1.9592023E-001	-1.055312339276833E-002
-1.9530928E-001	-1.047261787850100E-002
-1.9373576E-001	-1.039657256129757E-002
-1.9262037E-001	-1.033015351384637E-002
-1.9217977E-001	-1.025534156145079E-002
-1.9104144E-001	-1.017045620245456E-002
-1.9032663E-001	-1.011138159190997E-002
-1.8888268E-001	-1.002964549439229E-002
-1.8829796E-001	-9.960393532668123E-003
-1.8720390E-001	-9.901662601839278E-003
-1.8614963E-001	-9.819117153744672E-003
-1.8487687E-001	-9.758977124792879E-003
-1.8378334E-001	-9.672897135950986E-003
-1.8372776E-001	-9.609402973795374E-003
-1.8225604E-001	-9.529528978789545E-003
-1.8128109E-001	-9.456837576753628E-003
-1.7994335E-001	-9.398923874370801E-003
-1.7937343E-001	-9.328727522019818E-003
-1.7823409E-001	-9.252999819754776E-003
-1.7736930E-001	-9.186373893589492E-003
-1.7619090E-001	-9.102380207170663E-003
-1.7503735E-001	-9.039950825455084E-003
-1.7373034E-001	-8.974534628035977E-003
-1.7281635E-001	-8.899019944860954E-003
-1.7228246E-001	-8.825184667838264E-003
-1.7179051E-001	-8.762658296661702E-003
-1.7038113E-001	-8.705465307381616E-003
-1.6899765E-001	-8.632881285788430E-003
-1.6803947E-001	-8.561289260224286E-003
-1.6709083E-001	-8.499652189331977E-003
-1.6614208E-001	-8.427756024617206E-003
-1.6519676E-001	-8.360074035374948E-003
-1.6367665E-001	-8.304814842564078E-003
-1.6313902E-001	-8.239831453093066E-003
-1.6255555E-001	-8.163774410840485E-003
-1.6128935E-001	-8.096247865102709E-003
-1.5973127E-001	-8.035942270458341E-003
-1.5917318E-001	-7.970160650546454E-003
-1.5792748E-001	-7.914046057509713E-003
-1.5681325E-001	-7.852483495500769E-003
-1.5661471E-001	-7.755879028182866E-003
-1.5485573E-001	-7.722318582232567E-003
-1.5395781E-001	-7.656037438816071E-003
-1.5261313E-001	-7.580784367207730E-003
-1.5227129E-001	-7.518398401058141E-003
-1.5102473E-001	-7.448790417078716E-003
-1.4994523E-001	-7.396990943191298E-003
-1.4918636E-001	-7.340185691705650E-003
-1.4780888E-001	-7.264891985364050E-003
-1.4709613E-001	-7.219649253076776E-003
-1.4642940E-001	-7.141433456753665E-003
-1.4514816E-001	-7.079624742295398E-003
-1.4417836E-001	-7.019447911546517E-003
-1.4300187E-001	-6.965871155477588E-003
-1.4187568E-001	-6.894235355839856E-003
-1.4154193E-001	-6.831802655504038E-003
-1.4010292E-001	-6.762534802503592E-003
-1.3922599E-001	-6.710206920548342E-003
-1.3769403E-001	-6.643295141394404E-003
-1.3694330E-001	-6.610311616289735E-003
-1.3590237E-001	-6.531833865058900E-003
-1.3523000E-001	-6.478594046157374E-003
-1.3401318E-001	-6.426354505863326E-003
-1.3295311E-001	-6.358324424841716E-003
-1.3222897E-001	-6.296010008857905E-003
-1.3099970E-001	-6.235311520329051E-003
-1.3011611E-001	-6.170297656416149E-003
-1.2904473E-001	-6.111050642815558E-003
-1.2841195E-001	-6.051577420698270E-003
-1.2748371E-001	-5.994774620839596E-003
-1.2598477E-001	-5.947331972829817E-003
-1.2533334E-001	-5.890392723139728E-003
-1.2416905E-001	-5.837584718339742E-003
-1.2300864E-001	-5.776214758818121E-003
-1.2214485E-001	-5.727122693012135E-003
-1.2101548E-001	-5.664917594318662E-003
-1.2025628E-001	-5.597101579446130E-003
-1.1899509E-001	-5.550155579665234E-003
-1.1793964E-001	-5.482332440334609E-003
-1.1729540E-001	-5.453110198787822E-003
-1.1620019E-001	-5.384067883347679E-003
-1.1485148E-001	-5.327431547037270E-003
-1.1408782E-001	-5.274400714875407E-003
-1.1300506E-001	-5.227591927624849E-003
-1.1246589E-001	-5.171232452590227E-003
-1.1109917E-001	-5.105506762413808E-003
-1.1073337E-001	-5.051070328215258E-003
-1.0919383E-001	-5.002268903168725E-003
-1.0800040E-001	-4.951162643178748E-003
-1.0679617E-001	-4.903612727204291E-003
-1.0575716E-001	-4.849495943980632E-003
-1.0502663E-001	-4.797841427261220E-003
-1.0407244E-001	-4.739486629087311E-003
-1.0307184E-001	-4.685788262307783E-003
-1.0229374E-001	-4.640165755059787E-003
-1.0126981E-001	-4.597680217961569E-003
-1.0018817E-001	-4.526712736454386E-003
-9.8840542E-002	-4.464932627071969E-003
-9.8056093E-002	-4.411403006222947E-003
-9.6970901E-002	-4.360538868783535E-003
-9.5978074E-002	-4.307707228926330E-003
-9.4531164E-002	-4.256050948579629E-003
-9.3399942E-002	-4.205837522033115E-003
-9.2803806E-002	-4.156693312796521E-003
-9.2152998E-002	-4.105185043213326E-003
-9.0502001E-002	-4.060346791404573E-003
-8.9451976E-002	-4.007259869939418E-003
-8.8810079E-002	-3.965774037405275E-003
-8.7234996E-002	-3.912034078881216E-003
-8.6723387E-002	-3.864703800192930E-003
-8.5768595E-002	-3.817630767891260E-003
-8.4681444E-002	-3.766217360298516E-003
-8.3946437E-002	-3.716950776935042E-003
-8.2758419E-002	-3.672283556634019E-003
-8.1716754E-002	-3.623282340682904E-003
-8.0911949E-002	-3.574910116623400E-003
-7.9473399E-002	-3.530813922055676E-003
-7.8944676E-002	-3.480073646642268E-003
-7.7682093E-002	-3.436834771828546E-003
-7.6675370E-002	-3.384381574749414E-003
-7.5510330E-002	-3.343138253613799E-003
-7.4803099E-002	-3.297557374160662E-003
-7.3788352E-002	-3.246915469991465E-003
-7.2767310E-002	-3.204769008098757E-003
-7.1615003E-002	-3.159439434306007E-003
-7.0918836E-002	-3.117096982788538E-003
-6.9283538E-002	-3.071656784514855E-003
-6.9084965E-002	-3.024109872239818E-003
-6.7819864E-002	-2.978701265183861E-003
-6.6554315E-002	-2.935039337360108E-003
-6.5776691E-002	-2.889222048116515E-003
-6.5039940E-002	-2.843755581933588E-003
-6.3647747E-002	-2.801705723632725E-003
-6.2757485E-002	-2.753594033057138E-003
-6.2093277E-002	-2.717614986910047E-003
-6.0893480E-002	-2.670009891584474E-003
-5.9693053E-002	-2.625558835003164E-003
-5.8569629E-002	-2.584962450243811E-003
-5.7906248E-002	-2.539707852629445E-003
-5.6562897E-002	-2.495862084658626E-003
-5.5898730E-002	-2.447252241027952E-003
-5.5062920E-002	-2.412097240479357E-003
-5.3395201E-002	-2.367249852223162E-003
-5.3092070E-002	-2.326331181393478E-003
-5.1949024E-002	-2.276851528876096E-003
-5.0678696E-002	-2.238785226870314E-003
-4.9842920E-002	-2.197430396875082E-003
-4.8435036E-002	-2.155024121092338E-003
-4.7551725E-002	-2.113195841687868E-003
-4.7035433E-002	-2.067933113205692E-003
-4.5835190E-002	-2.028128860358799E-003
-4.4604424E-002	-1.988276064771019E-003
-4.4034831E-002	-1.943848674448203E-003
-4.3267597E-002	-1.898720232593062E-003
-4.1813895E-002	-1.856230669309970E-003
-4.1194994E-002	-1.816258001704034E-003
-3.9974321E-002	-1.770767284378291E-003
-3.8988989E-002	-1.728575372167314E-003
-3.7484422E-002	-1.682643118856651E-003
-3.6614228E-002	-1.643865421808895E-003
-3.5504375E-002	-1.598343690771060E-003
-3.4210380E-002	-1.559031539423397E-003
-3.3440374E-002	-1.510693757962953E-003
-3.3211954E-002	-1.467436575188431E-003
-3.2177582E-002	-1.423426153956422E-003
-3.0732142E-002	-1.375738315901901E-003
-2.9974781E-002	-1.332991912519149E-003
-2.8581169E-002	-1.290877945629524E-003
-2.7793752E-002	-1.241635515018262E-003
-2.6823396E-002	-1.197571502135042E-003
-2.5821179E-002	-1.155542195327277E-003
-2.5510628E-002	-1.104673387696190E-003
-2.3817580E-002	-1.059798770877141E-003
-2.3021735E-002	-1.011041614590261E-003
-2.2144375E-002	-9.613766803037542E-004
-2.0981491E-002	-9.099510421836030E-004
-2.0077404E-002	-8.642029421968844E-004
-1.8806878E-002	-8.114521611946447E-004
-1.7496452E-002	-7.593205355752378E-004
-1.7175078E-002	-7.133354146962667E-004
-1.5922692E-002	-6.553206481594287E-004
-1.4999287E-002	-6.026154203734924E-004
-1.3552790E-002	-5.458072373585297E-004
-1.3037315E-002	-4.878369764386541E-004
-1.1738040E-002	-4.294325932547791E-004
-1.0579401E-002	-3.738401540397669E-004
-9.9674864E-003	-3.146502622569007E-004
-9.0465667E-003	-2.515515012041294E-004
-7.5324015E-003	-1.892508279390667E-004
-7.1864217E-003	-1.275609879008957E-004
-6.0415701E-003	-6.098349453667281E-005
-4.5896545E-003	3.707234484545154E-006
-3.9075688E-003	7.086122222706192E-005
-2.7815963E-003	1.425836935284364E-004
-2.0747513E-003	2.164316484911015E-004
-4.4564885E-004	2.880344417530136E-004
3.7316282E-004	3.604193191306514E-004
1.0723005E-003	4.463088840611085E-004
2.5803475E-003	5.210210116880845E-004
3.3730674E-003	6.108001223900060E-004
4.0467624E-003	6.920693161333001E-004
5.3836103E-003	7.787738122715417E-004
6.0070008E-003	8.678876659999266E-004
7.5443420E-003	8.536071739702784E-004
6.3492162E-003	9.762406857176265E-004