EC-Lab ASCII FILE
Nb header lines : 63                          

Linear Sweep Voltammetry

Run on channel : 6 (SN 13765)
User : 
Electrode connection : standard
Potential control : Ewe
Ewe ctrl range : min = -2.50 V, max = 2.50 V
Ewe,I filtering : <None>
Safety Limits :
	Do not start on E overload
Channel : Floating
Acquisition started on : 07/17/2026 13:55:11.347
Technique started on : 07/17/2026 13:55:12.344
Loaded Setting File :  C:\Users\EEM-620\Desktop\Wade\abao\20260629\N719_0629-0-1_C06.mpr
Saved on :
	File : N719_0717-g-1_C06.mpr
	Directory : C:\Users\EEM-620\Desktop\Wade\abao\20260717\
	Host : 192.109.209.200
Device : VSP-300 (SN 0025)
Address : 192.109.209.129
EC-LAB for windows v11.62 (software)
Internet server v27.00 (firmware)
Command interpretor v12.02 (firmware)
Electrode material : Au/Pd
Initial state : 
Electrolyte : NaCl (0.2M)
Comments : Fe(CN)63-/Fe(CN)64- 5.10-3 M
Cable : ULC
Reference electrode : SCE Saturated Calomel Electrode (0.241 V)
Electrode surface area : 0.001 cm2
Characteristic mass : 0.001 g
Equivalent Weight : 0.000 g/eq.
Density : 0.000 g/cm3
Volume (V) : 0.001 cm3
Cycle Definition : Charge/Discharge alternance
tR (h:m:s)          0:00:5.0000         
dER/dt (mV/h)       0.0                 
dER (mV)            0                   
dtR (s)             0.0500              
dE/dt               10.000              
dE/dt unit          mV/s                
Ei (V)              -0.800              
vs.                 Ref                 
EL (V)              0.010               
vs.                 Ref                 
record              <I>                 
dI                  0.000               
unit dI             uA                  
tI (s)              0.0000              
step percent        50                  
N                   10                  
E range min (V)     -2.500              
E range max (V)     2.500               
I Range             Auto                
I Range min         Unset               
I Range max         Unset               
I Range init        Unset               
Bandwidth           8                   

Ewe/V	<I>/mA	
-6.6275316E-001	0.000000000000000E+000
-6.6168398E-001	0.000000000000000E+000
-6.6210020E-001	0.000000000000000E+000
-6.6274166E-001	0.000000000000000E+000
-6.6217279E-001	0.000000000000000E+000
-6.6235983E-001	0.000000000000000E+000
-6.6168404E-001	0.000000000000000E+000
-6.6281426E-001	0.000000000000000E+000
-6.6178334E-001	0.000000000000000E+000
-6.6249347E-001	0.000000000000000E+000
-6.6151601E-001	0.000000000000000E+000
-6.6228354E-001	0.000000000000000E+000
-6.6236746E-001	0.000000000000000E+000
-6.6200477E-001	0.000000000000000E+000
-6.6189021E-001	0.000000000000000E+000
-6.6247439E-001	0.000000000000000E+000
-6.6224909E-001	0.000000000000000E+000
-6.6226059E-001	0.000000000000000E+000
-6.6344047E-001	0.000000000000000E+000
-6.6196275E-001	0.000000000000000E+000
-6.6240948E-001	0.000000000000000E+000
-6.6217273E-001	0.000000000000000E+000
-6.6186345E-001	0.000000000000000E+000
-6.6316932E-001	0.000000000000000E+000
-6.6230255E-001	0.000000000000000E+000
-6.6184056E-001	0.000000000000000E+000
-6.6210020E-001	0.000000000000000E+000
-6.6230637E-001	0.000000000000000E+000
-6.6183293E-001	0.000000000000000E+000
-6.6171074E-001	0.000000000000000E+000
-6.6202766E-001	0.000000000000000E+000
-6.6195512E-001	0.000000000000000E+000
-6.6169167E-001	0.000000000000000E+000
-6.6145492E-001	0.000000000000000E+000
-6.6142440E-001	0.000000000000000E+000
-6.6181386E-001	0.000000000000000E+000
-6.6134417E-001	0.000000000000000E+000
-6.6220331E-001	0.000000000000000E+000
-6.6192842E-001	0.000000000000000E+000
-6.6305101E-001	0.000000000000000E+000
-6.6179472E-001	0.000000000000000E+000
-6.6164958E-001	0.000000000000000E+000
-6.6160768E-001	0.000000000000000E+000
-6.6136712E-001	0.000000000000000E+000
-6.6163439E-001	0.000000000000000E+000
-6.6223383E-001	0.000000000000000E+000
-6.6174507E-001	0.000000000000000E+000
-6.6187489E-001	0.000000000000000E+000
-6.6126400E-001	0.000000000000000E+000
-6.6115326E-001	0.000000000000000E+000
-6.6178709E-001	0.000000000000000E+000
-6.6092801E-001	0.000000000000000E+000
-6.6170311E-001	0.000000000000000E+000
-6.6167253E-001	0.000000000000000E+000
-6.6144723E-001	0.000000000000000E+000
-6.6198564E-001	0.000000000000000E+000
-6.6192842E-001	0.000000000000000E+000
-6.6178709E-001	0.000000000000000E+000
-6.6217273E-001	0.000000000000000E+000
-6.6186345E-001	0.000000000000000E+000
-6.6175658E-001	0.000000000000000E+000
-6.6626596E-001	0.000000000000000E+000
-6.6656381E-001	0.000000000000000E+000
-7.8966177E-001	-4.008153180281324E-001
-7.8897077E-001	-4.020960771789168E-001
-7.8828686E-001	-3.967897493944132E-001
-7.8692812E-001	-3.913339543872416E-001
-7.8608054E-001	-3.861543432016052E-001
-7.8497583E-001	-3.814023709338570E-001
-7.8398031E-001	-3.769518397947464E-001
-7.8271413E-001	-3.726355094738585E-001
-7.8187287E-001	-3.684479382441008E-001
-7.8090733E-001	-3.643053343331939E-001
-7.8023618E-001	-3.604406299138496E-001
-7.7917796E-001	-3.565341605356451E-001
-7.7815992E-001	-3.527880890606859E-001
-7.7723587E-001	-3.491766178221607E-001
-7.7611840E-001	-3.454881002444417E-001
-7.7506071E-001	-3.418337037372905E-001
-7.7407306E-001	-3.381735942912876E-001
-7.7282584E-001	-3.345141157674796E-001
-7.7205205E-001	-3.310442532033284E-001
-7.7122843E-001	-3.274083683888116E-001
-7.6987493E-001	-3.240271541593758E-001
-7.6908851E-001	-3.204934091686651E-001
-7.6791716E-001	-3.169755269945758E-001
-7.6722175E-001	-3.134560829675341E-001
-7.6599020E-001	-3.099974623915762E-001
-7.6499844E-001	-3.067317028633425E-001
-7.6381987E-001	-3.032210777992089E-001
-7.6302862E-001	-2.996802649771169E-001
-7.6197881E-001	-2.965347979556618E-001
-7.6097506E-001	-2.929860552841852E-001
-7.6001883E-001	-2.897460260945905E-001
-7.5922424E-001	-2.862629932344043E-001
-7.5790113E-001	-2.830534309700687E-001
-7.5717312E-001	-2.797068314695790E-001
-7.5607544E-001	-2.763399994674467E-001
-7.5529349E-001	-2.732579745007329E-001
-7.5413293E-001	-2.700754683464771E-001
-7.5337827E-001	-2.666650923259786E-001
-7.5223833E-001	-2.634529775284508E-001
-7.5098753E-001	-2.603152610007697E-001
-7.5030613E-001	-2.571264476756785E-001
-7.4898326E-001	-2.539022476929746E-001
-7.4829954E-001	-2.507365015391141E-001
-7.4698269E-001	-2.475358899337810E-001
-7.4592733E-001	-2.443281150664440E-001
-7.4511284E-001	-2.411891840447187E-001
-7.4401546E-001	-2.380580112545019E-001
-7.4295384E-001	-2.350054229092269E-001
-7.4213618E-001	-2.318458337909006E-001
-7.4101728E-001	-2.287915604602957E-001
-7.4018323E-001	-2.257605973562151E-001
-7.3920500E-001	-2.227811702855544E-001
-7.3827040E-001	-2.196846207672807E-001
-7.3719889E-001	-2.166853036809275E-001
-7.3591900E-001	-2.135804726707711E-001
-7.3531973E-001	-2.106099365692997E-001
-7.3395449E-001	-2.074954139270382E-001
-7.3323554E-001	-2.047097234538309E-001
-7.3210263E-001	-2.016200118318752E-001
-7.3123968E-001	-1.986476830320592E-001
-7.3010415E-001	-1.957381911817246E-001
-7.2895950E-001	-1.928331603434077E-001
-7.2814870E-001	-1.896990503826208E-001
-7.2706860E-001	-1.868018727680600E-001
-7.2627270E-001	-1.838110468039904E-001
-7.2508967E-001	-1.809086033590015E-001
-7.2412622E-001	-1.780846640467653E-001
-7.2303975E-001	-1.752006286611631E-001
-7.2206116E-001	-1.722217808925991E-001
-7.2101426E-001	-1.692673597070904E-001
-7.2011572E-001	-1.665644633084497E-001
-7.1877700E-001	-1.636056476962511E-001
-7.1802413E-001	-1.607351407098268E-001
-7.1712160E-001	-1.577166803315846E-001
-7.1605837E-001	-1.549337605980257E-001
-7.1550095E-001	-1.520637459190630E-001
-7.1409893E-001	-1.492213902251035E-001
-7.1304590E-001	-1.464292448083011E-001
-7.1218759E-001	-1.436727383448435E-001
-7.1118706E-001	-1.408954867920661E-001
-7.1001953E-001	-1.379228433145694E-001
-7.0888364E-001	-1.352628423527507E-001
-7.0818800E-001	-1.324253720748767E-001
-7.0723706E-001	-1.298711620512665E-001
-7.0621765E-001	-1.270353037460911E-001
-7.0511347E-001	-1.242451724009925E-001
-7.0411265E-001	-1.215000301771967E-001
-7.0322591E-001	-1.188838922858956E-001
-7.0212525E-001	-1.161979831996620E-001
-7.0112544E-001	-1.135423266397854E-001
-7.0017982E-001	-1.108362745882076E-001
-6.9906843E-001	-1.081690815001446E-001
-6.9807714E-001	-1.054878780259050E-001
-6.9735730E-001	-1.027348315584713E-001
-6.9607973E-001	-1.001470012555794E-001
-6.9471091E-001	-9.737150983160525E-002
-6.9419926E-001	-9.474248074305525E-002
-6.9289804E-001	-9.217851242498920E-002
-6.9190735E-001	-8.948393563704293E-002
-6.9119811E-001	-8.689275406369996E-002
-6.9022882E-001	-8.427823906660903E-002
-6.8929112E-001	-8.172680454899552E-002
-6.8823141E-001	-7.914073038328837E-002
-6.8720490E-001	-7.648833771953945E-002
-6.8597358E-001	-7.396984106378127E-002
-6.8527180E-001	-7.128115657165068E-002
-6.8430513E-001	-6.876266664726455E-002
-6.8320531E-001	-6.618469220551615E-002
-6.8211436E-001	-6.361726592984723E-002
-6.8121588E-001	-6.099425510358669E-002
-6.7983949E-001	-5.864144715963371E-002
-6.7909425E-001	-5.591222817181718E-002
-6.7812204E-001	-5.359372960031161E-002
-6.7704576E-001	-5.088940048935242E-002
-6.7600703E-001	-4.834209437723530E-002
-6.7490125E-001	-4.600889637827096E-002
-6.7388606E-001	-4.320851657798308E-002
-6.7272735E-001	-4.050365964276836E-002
-6.7188221E-001	-3.779686677390365E-002
-6.7081112E-001	-3.552288065785192E-002
-6.6974062E-001	-3.295839482778962E-002
-6.6890919E-001	-3.051206354845160E-002
-6.6781276E-001	-2.819384353373344E-002
-6.6688466E-001	-2.559807826987331E-002
-6.6613185E-001	-2.318148586588598E-002
-6.6471016E-001	-2.061907005779003E-002
-6.6391766E-001	-1.818156742740906E-002
-6.6287369E-001	-1.570642030047670E-002
-6.6175628E-001	-1.337911150906784E-002
-6.6069460E-001	-1.089024434029984E-002
-6.5975589E-001	-8.577590644428576E-003
-6.5879732E-001	-6.081866635017162E-003
-6.5785909E-001	-3.789944651847052E-003
-6.5648717E-001	-9.830604649428811E-004
-6.5550745E-001	1.843195692945498E-003
-6.5447074E-001	4.226880708032454E-003
-6.5340060E-001	6.499116590243367E-003
-6.5240330E-001	8.874366952416786E-003
-6.5107697E-001	1.138566388391687E-002
-6.5021932E-001	1.403788338156808E-002
-6.4935672E-001	1.637965777707795E-002
-6.4814091E-001	1.869324170035763E-002
-6.4717436E-001	2.091126640777868E-002
-6.4627624E-001	2.330897950472442E-002
-6.4507997E-001	2.570251881421259E-002
-6.4425385E-001	2.783351101377907E-002
-6.4320385E-001	3.016568277100162E-002
-6.4225304E-001	3.248627572393442E-002
-6.4129359E-001	3.467881986957588E-002
-6.3998652E-001	3.708778046226757E-002
-6.3913822E-001	3.948464887686698E-002
-6.3810199E-001	4.166321455138848E-002
-6.3726848E-001	4.395377950277196E-002
-6.3634986E-001	4.600781174128754E-002
-6.3530815E-001	4.838111893170394E-002
-6.3403028E-001	5.063987989328100E-002
-6.3337576E-001	5.288979330927956E-002
-6.3239175E-001	5.515386792831134E-002
-6.3119102E-001	5.720105217087068E-002
-6.3024813E-001	5.959445010456754E-002
-6.2924623E-001	6.174052491163204E-002
-6.2808180E-001	6.400598831645099E-002
-6.2722278E-001	6.622126150910801E-002
-6.2624723E-001	6.828348989667421E-002
-6.2504947E-001	7.069761272569916E-002
-6.2449610E-001	7.268304340713855E-002
-6.2338561E-001	7.472052914090432E-002
-6.2235117E-001	7.720320629442237E-002
-6.2139225E-001	7.916950385293181E-002
-6.2020576E-001	8.139295658302692E-002
-6.1930919E-001	8.377864350633790E-002
-6.1828417E-001	8.556994270636786E-002
-6.1722404E-001	8.787776279485282E-002
-6.1601973E-001	8.997364671624886E-002
-6.1501211E-001	9.221265884116292E-002
-6.1429995E-001	9.419537592273253E-002
-6.1326182E-001	9.637230288892740E-002
-6.1221290E-001	9.854109124797916E-002
-6.1088103E-001	1.006943740333546E-001
-6.1014509E-001	1.028452856914586E-001
-6.0917431E-001	1.051933331139109E-001
-6.0827577E-001	1.071795647575464E-001
-6.0703361E-001	1.096907463334785E-001
-6.0586596E-001	1.120831489418304E-001
-6.0508728E-001	1.140199741693557E-001
-6.0406572E-001	1.163729317313815E-001
-6.0301691E-001	1.182758048111563E-001
-6.0191232E-001	1.203329827877933E-001
-6.0097945E-001	1.223679292015727E-001
-6.0019231E-001	1.244908460923155E-001
-5.9871012E-001	1.265535820792947E-001
-5.9781909E-001	1.284663535567130E-001
-5.9706080E-001	1.304459281058777E-001
-5.9591240E-001	1.322499346850367E-001
-5.9494364E-001	1.344324067264869E-001
-5.9394038E-001	1.364353037335810E-001
-5.9305304E-001	1.385583276515485E-001
-5.9216237E-001	1.405106462368819E-001
-5.9106123E-001	1.423367516448093E-001
-5.8994353E-001	1.446168129849766E-001
-5.8899468E-001	1.466566522224744E-001
-5.8782464E-001	1.485354040438929E-001
-5.8694404E-001	1.506218059264399E-001
-5.8606970E-001	1.527521766297781E-001
-5.8499467E-001	1.549712415888084E-001
-5.8389956E-001	1.568901407559476E-001
-5.8283538E-001	1.588867740291694E-001
-5.8189756E-001	1.609000840431287E-001
-5.8066881E-001	1.630225470179564E-001
-5.7987446E-001	1.650145915509369E-001
-5.7896549E-001	1.667736200270835E-001
-5.7794428E-001	1.688451780451676E-001
-5.7696331E-001	1.708891371920431E-001
-5.7608122E-001	1.727680524776654E-001
-5.7483202E-001	1.748345223125620E-001
-5.7382649E-001	1.767252333358762E-001
-5.7295829E-001	1.788525697901593E-001
-5.7175869E-001	1.807354301283208E-001
-5.7091820E-001	1.827116992014144E-001
-5.6994408E-001	1.845323248395374E-001
-5.6883413E-001	1.866181578694119E-001
-5.6796265E-001	1.886805236960454E-001
-5.6702840E-001	1.905285502142120E-001
-5.6602812E-001	1.924439171950025E-001
-5.6500286E-001	1.944468543278401E-001
-5.6382591E-001	1.962079201158176E-001
-5.6301081E-001	1.983172522719814E-001
-5.6189692E-001	2.003550035879016E-001
-5.6094837E-001	2.021724271282097E-001
-5.5986345E-001	2.039758730334824E-001
-5.5920362E-001	2.058736474848244E-001
-5.5783486E-001	2.080600619040140E-001
-5.5670595E-001	2.097744573321600E-001
-5.5614036E-001	2.116941811636763E-001
-5.5507493E-001	2.136112125935377E-001
-5.5386603E-001	2.154319364991455E-001
-5.5298877E-001	2.173875076138043E-001
-5.5200756E-001	2.191933665976478E-001
-5.5096579E-001	2.209505852035909E-001
-5.4981756E-001	2.230572046774935E-001
-5.4907954E-001	2.247648458858897E-001
-5.4779661E-001	2.263768085933942E-001
-5.4696566E-001	2.286276420797311E-001
-5.4602253E-001	2.304493121595845E-001
-5.4517251E-001	2.320359586107217E-001
-5.4395330E-001	2.341315371018862E-001
-5.4289794E-001	2.358080381182606E-001
-5.4196596E-001	2.377591057121435E-001
-5.4083306E-001	2.396633556043666E-001
-5.3990650E-001	2.412789670957460E-001
-5.3877676E-001	2.434934604188106E-001
-5.3802836E-001	2.449886947180393E-001
-5.3686267E-001	2.469173441123624E-001
-5.3560597E-001	2.488678766818304E-001
-5.3501612E-001	2.507308952648328E-001
-5.3392887E-001	2.525065329266996E-001
-5.3304827E-001	2.542139015126006E-001
-5.3191519E-001	2.559202264442488E-001
-5.3118926E-001	2.578027782794177E-001
-5.2996045E-001	2.594590228464870E-001
-5.2901924E-001	2.611869226244310E-001
-5.2814966E-001	2.630383027559637E-001
-5.2716100E-001	2.646284412454678E-001
-5.2620304E-001	2.665747339250859E-001
-5.2511531E-001	2.684863434675759E-001
-5.2382851E-001	2.701078559168515E-001
-5.2287501E-001	2.717787342973885E-001
-5.2207130E-001	2.736755592445584E-001
-5.2116293E-001	2.753509917744896E-001
-5.1999831E-001	2.772568182406571E-001
-5.1901722E-001	2.789636552678766E-001
-5.1791096E-001	2.807072961909898E-001
-5.1708585E-001	2.825085578676849E-001
-5.1584232E-001	2.841665967953988E-001
-5.1501501E-001	2.859903369788777E-001
-5.1382375E-001	2.876115390462570E-001
-5.1294833E-001	2.895293929096727E-001
-5.1219016E-001	2.913562141496842E-001
-5.1094383E-001	2.928351087465684E-001
-5.1001793E-001	2.948975903499456E-001
-5.0898826E-001	2.965950073881292E-001
-5.0806409E-001	2.983390298250601E-001
-5.0685513E-001	2.998979005755658E-001
-5.0602025E-001	3.015691962706128E-001
-5.0490630E-001	3.033766418833415E-001
-5.0409323E-001	3.050179999252709E-001
-5.0284487E-001	3.068419076197020E-001
-5.0190985E-001	3.085970054208151E-001
-5.0110227E-001	3.100043522125052E-001
-4.9999875E-001	3.118613604592060E-001
-4.9908108E-001	3.133217369516705E-001
-4.9792200E-001	3.151296665202142E-001
-4.9691904E-001	3.168430036556539E-001
-4.9585608E-001	3.185831336304557E-001
-4.9522659E-001	3.202639864819878E-001
-4.9389860E-001	3.219614639464363E-001
-4.9311459E-001	3.236906735433474E-001
-4.9198037E-001	3.255509125882056E-001
-4.9101469E-001	3.270948285719868E-001
-4.8973536E-001	3.287747491634009E-001
-4.8892960E-001	3.301109370363172E-001
-4.8798004E-001	3.319629818132075E-001
-4.8703688E-001	3.334936296429332E-001
-4.8585653E-001	3.351877332518919E-001
-4.8497459E-001	3.367827562615286E-001
-4.8412162E-001	3.384817230894596E-001
-4.8287436E-001	3.398172873718699E-001
-4.8215413E-001	3.416776691942869E-001
-4.8114163E-001	3.429439648811990E-001
-4.7984532E-001	3.449229044080879E-001
-4.7908530E-001	3.465770687562992E-001
-4.7783259E-001	3.480978200017875E-001
-4.7696865E-001	3.497468920562552E-001
-4.7608384E-001	3.511996726608935E-001
-4.7501445E-001	3.529372794142339E-001
-4.7382408E-001	3.544513774966758E-001
-4.7295713E-001	3.561338028284116E-001
-4.7193167E-001	3.573774901221070E-001
-4.7084421E-001	3.590665914256261E-001
-4.7009069E-001	3.606492683843303E-001
-4.6877977E-001	3.623565149728973E-001
-4.6800160E-001	3.637409531683831E-001
-4.6698338E-001	3.655335829529482E-001
-4.6596250E-001	3.669729812622621E-001
-4.6503332E-001	3.688676707032656E-001
-4.6377826E-001	3.701986457757158E-001
-4.6300519E-001	3.720084783034752E-001
-4.6203646E-001	3.732899285301041E-001
-4.6096534E-001	3.750023209587845E-001
-4.5995504E-001	3.767199428338142E-001
-4.5894995E-001	3.782198920639033E-001
-4.5804906E-001	3.797343222514034E-001
-4.5698416E-001	3.815161032878129E-001
-4.5584786E-001	3.829170595490776E-001
-4.5478910E-001	3.845154192229661E-001
-4.5401314E-001	3.859151852558602E-001
-4.5305315E-001	3.875231269046830E-001
-4.5203504E-001	3.890922505546470E-001
-4.5084882E-001	3.906334452676008E-001
-4.4968379E-001	3.923474741386999E-001
-4.4893539E-001	3.935771420322105E-001
-4.4782090E-001	3.953914175292947E-001
-4.4671446E-001	3.969027476827698E-001
-4.4582817E-001	3.984244948046074E-001
-4.4490099E-001	3.999843155896210E-001
-4.4408366E-001	4.015894111143901E-001
-4.4296229E-001	4.033739132875640E-001
-4.4194627E-001	4.047547694089317E-001
-4.4079608E-001	4.062379108120986E-001
-4.4014233E-001	4.077530924092816E-001
-4.3914163E-001	4.095082739693634E-001
-4.3807235E-001	4.108383905280513E-001
-4.3709937E-001	4.123683079939173E-001
-4.3597203E-001	4.140752690302936E-001
-4.3512443E-001	4.155904025667254E-001
-4.3387541E-001	4.171846962223436E-001
-4.3308774E-001	4.184637977408121E-001
-4.3185303E-001	4.198301844298857E-001
-4.3116701E-001	4.215475876850117E-001
-4.2981932E-001	4.227278702554944E-001
-4.2889449E-001	4.245594183879882E-001
-4.2804259E-001	4.259979919709345E-001
-4.2703986E-001	4.273717110907597E-001
-4.2611790E-001	4.289871561858369E-001
-4.2501801E-001	4.301686995260523E-001
-4.2387217E-001	4.318625567549912E-001
-4.2297998E-001	4.331660931585013E-001
-4.2196816E-001	4.347722129561706E-001
-4.2100990E-001	4.362696969398758E-001
-4.1993082E-001	4.374136196932312E-001
-4.1893381E-001	4.391192717355086E-001
-4.1805732E-001	4.403958791108051E-001
-4.1693330E-001	4.419953061443849E-001
-4.1574723E-001	4.433050824812197E-001
-4.1509601E-001	4.448901021646110E-001
-4.1403112E-001	4.463159314832268E-001
-4.1324076E-001	4.476003498528840E-001
-4.1212302E-001	4.490080391643207E-001
-4.1072419E-001	4.504140592970944E-001
-4.0970373E-001	4.517691877015224E-001
-4.0887603E-001	4.531508493754579E-001
-4.0781951E-001	4.545057444064535E-001
-4.0697682E-001	4.559514041024197E-001
-4.0586081E-001	4.573177526946424E-001
-4.0511182E-001	4.586362339730155E-001
-4.0386704E-001	4.600374660696138E-001
-4.0287054E-001	4.615965020651629E-001
-4.0213203E-001	4.629126336701503E-001
-4.0083021E-001	4.644431043416279E-001
-4.0006122E-001	4.658790351398201E-001
-3.9898071E-001	4.669948134019410E-001
-3.9798543E-001	4.683064369967704E-001
-3.9712629E-001	4.698741962073085E-001
-3.9609724E-001	4.714406214102542E-001
-3.9508751E-001	4.727513311361804E-001
-3.9405501E-001	4.738851930633565E-001
-3.9295331E-001	4.755441072500393E-001
-3.9196882E-001	4.771336933115000E-001
-3.9105499E-001	4.782000696541484E-001
-3.8981506E-001	4.797335180143518E-001
-3.8906553E-001	4.812038912838297E-001
-3.8797632E-001	4.823562293830861E-001
-3.8692781E-001	4.837720388615571E-001
-3.8598582E-001	4.849076390859590E-001
-3.8490796E-001	4.863016995152938E-001
-3.8401935E-001	4.877993982561195E-001
-3.8293755E-001	4.890316654308617E-001
-3.8187686E-001	4.905100406182030E-001
-3.8108221E-001	4.915889597463394E-001
-3.7970009E-001	4.933677582004516E-001
-3.7900975E-001	4.942903584904159E-001
-3.7813556E-001	4.959391122016834E-001
-3.7697139E-001	4.970512508794123E-001
-3.7579131E-001	4.985610381182690E-001
-3.7499663E-001	4.999116415435156E-001
-3.7374985E-001	5.010942822943134E-001
-3.7288073E-001	5.024529109122573E-001
-3.7220421E-001	5.036288522695402E-001
-3.7082246E-001	5.050888772088085E-001
-3.6971837E-001	5.062311139923530E-001
-3.6905855E-001	5.075901803517238E-001
-3.6788237E-001	5.090080897013340E-001
-3.6712173E-001	5.100695039663066E-001
-3.6581308E-001	5.112920467458379E-001
-3.6507720E-001	5.125781914426206E-001
-3.6402145E-001	5.139732361154897E-001
-3.6309639E-001	5.149574884110044E-001
-3.6194006E-001	5.166510536714846E-001
-3.6106503E-001	5.176208694410613E-001
-3.5996580E-001	5.191333909967455E-001
-3.5902011E-001	5.207175070212968E-001
-3.5799700E-001	5.220340522435614E-001
-3.5707211E-001	5.230829515666855E-001
-3.5596356E-001	5.245009110895578E-001
-3.5505387E-001	5.257526487869590E-001
-3.5419863E-001	5.269847385999213E-001
-3.5292634E-001	5.283853393048052E-001
-3.5216692E-001	5.293709819299579E-001
-3.5090861E-001	5.306182344340602E-001
-3.5012835E-001	5.320469831811501E-001
-3.4912947E-001	5.330813643005188E-001
-3.4815067E-001	5.341641319984651E-001
-3.4699094E-001	5.355629142484286E-001
-3.4578314E-001	5.368700425519979E-001
-3.4505555E-001	5.380200145559179E-001
-3.4375399E-001	5.390879445170924E-001
-3.4276307E-001	5.404679569657240E-001
-3.4190503E-001	5.416378963876676E-001
-3.4103420E-001	5.426891875563857E-001
-3.4000331E-001	5.439440552145243E-001
-3.3913887E-001	5.454431660836496E-001
-3.3786336E-001	5.466212217730497E-001
-3.3699495E-001	5.478782132267943E-001
-3.3584121E-001	5.492486924889950E-001
-3.3504909E-001	5.507079331135307E-001
-3.3398759E-001	5.520844436078167E-001
-3.3281031E-001	5.532584262404630E-001
-3.3211538E-001	5.545008168038410E-001
-3.3069474E-001	5.560114797618656E-001
-3.3004910E-001	5.569573597861255E-001
-3.2881019E-001	5.583721882215267E-001
-3.2815132E-001	5.595035752350537E-001
-3.2688406E-001	5.606839231870797E-001
-3.2594812E-001	5.616912819031219E-001
-3.2503891E-001	5.633208311634625E-001
-3.2402271E-001	5.641437894492265E-001
-3.2319033E-001	5.657397701784426E-001
-3.2201973E-001	5.665593945901151E-001
-3.2092687E-001	5.681329501309884E-001
-3.2026041E-001	5.689042894238678E-001
-3.1878299E-001	5.704576242143364E-001
-3.1823054E-001	5.714818037770399E-001
-3.1693301E-001	5.726260602888149E-001
-3.1612569E-001	5.739099966582590E-001
-3.1512311E-001	5.753413588498475E-001
-3.1395766E-001	5.760867572906929E-001
-3.1289703E-001	5.776675939170014E-001
-3.1204319E-001	5.789103959859521E-001
-3.1115606E-001	5.800855869163941E-001
-3.0999494E-001	5.811747703701258E-001
-3.0912396E-001	5.822847651800629E-001
-3.0799693E-001	5.831535978728590E-001
-3.0688325E-001	5.846575460638181E-001
-3.0608502E-001	5.855383359033768E-001
-3.0501792E-001	5.868231775537023E-001
-3.0413172E-001	5.874425907515839E-001
-3.0305690E-001	5.889652512829606E-001
-3.0192000E-001	5.899416609951906E-001
-3.0104101E-001	5.912227794114102E-001
-2.9995698E-001	5.923593512518526E-001
-2.9914549E-001	5.934716977730954E-001
-2.9783154E-001	5.948433228251040E-001
-2.9690567E-001	5.956035689415753E-001
-2.9593959E-001	5.969729475263095E-001
-2.9483968E-001	5.981043677915050E-001
-2.9407704E-001	5.992677721045627E-001
-2.9303050E-001	6.002950749739471E-001
-2.9220590E-001	6.015335317287172E-001
-2.9124019E-001	6.028365565871585E-001
-2.8997707E-001	6.039133836963657E-001
-2.8891733E-001	6.045763084871911E-001
-2.8812012E-001	6.060854108305271E-001
-2.8684890E-001	6.071766127176854E-001
-2.8605101E-001	6.081686438267244E-001
-2.8510115E-001	6.094249910502505E-001
-2.8379974E-001	6.103477960245476E-001
-2.8287041E-001	6.115998817757884E-001
-2.8199202E-001	6.128469233711566E-001
-2.8108156E-001	6.139478836622523E-001
-2.7993858E-001	6.148897424093260E-001
-2.7922073E-001	6.157685683833236E-001
-2.7776259E-001	6.169896752883974E-001
-2.7699256E-001	6.181566599302046E-001
-2.7602082E-001	6.190247984809973E-001
-2.7496460E-001	6.203170478703983E-001
-2.7392629E-001	6.213231628967653E-001
-2.7289090E-001	6.225835881023496E-001
-2.7185383E-001	6.236254524625160E-001
-2.7094612E-001	6.247476427643424E-001
-2.6986298E-001	6.257775923306177E-001
-2.6901722E-001	6.268115066356708E-001
-2.6801240E-001	6.276770703218615E-001
-2.6703402E-001	6.289431254068987E-001
-2.6601774E-001	6.300937960503372E-001
-2.6511684E-001	6.311079963213873E-001
-2.6410818E-001	6.322498360855691E-001
-2.6317370E-001	6.334805506549736E-001
-2.6197395E-001	6.342359385280698E-001
-2.6103202E-001	6.352270131934352E-001
-2.6001686E-001	6.362575248435678E-001
-2.5906971E-001	6.375171693248891E-001
-2.5787565E-001	6.382210809707534E-001
-2.5729337E-001	6.392376417363117E-001
-2.5601700E-001	6.404187856587029E-001
-2.5502497E-001	6.417106925981386E-001
-2.5388977E-001	6.425345028164227E-001
-2.5290826E-001	6.436467586016228E-001
-2.5226068E-001	6.446507184045878E-001
-2.5106466E-001	6.458214019183766E-001
-2.5001910E-001	6.467547416687007E-001
-2.4885727E-001	6.477953726440751E-001
-2.4788785E-001	6.489337077019406E-001
-2.4697836E-001	6.499789166749590E-001
-2.4637727E-001	6.508907853729191E-001
-2.4499376E-001	6.520682596084135E-001
-2.4424891E-001	6.527580550066556E-001
-2.4315760E-001	6.541263990242161E-001
-2.4215613E-001	6.549902354815469E-001
-2.4090594E-001	6.561419489400562E-001
-2.4018867E-001	6.570728592988520E-001
-2.3908818E-001	6.580714694465755E-001
-2.3793806E-001	6.592379858348960E-001
-2.3721042E-001	6.599502462065905E-001
-2.3592964E-001	6.611605326918548E-001
-2.3504204E-001	6.622084413689624E-001
-2.3407856E-001	6.632373492336967E-001
-2.3313186E-001	6.640065840074305E-001
-2.3224066E-001	6.648982924029809E-001
-2.3111026E-001	6.660105379781225E-001
-2.3014551E-001	6.666837842398321E-001
-2.2880590E-001	6.677861204025914E-001
-2.2800173E-001	6.686143110057809E-001
-2.2679050E-001	6.698276424275853E-001
-2.2609089E-001	6.709581632856962E-001
-2.2504957E-001	6.717757575765828E-001
-2.2399725E-001	6.728206820899492E-001
-2.2297113E-001	6.738764098672951E-001
-2.2212173E-001	6.750480014319651E-001
-2.2122447E-001	6.756565423199428E-001
-2.1979645E-001	6.767478785305112E-001
-2.1910252E-001	6.775355389091184E-001
-2.1784402E-001	6.785832824254481E-001
-2.1707846E-001	6.794966596558156E-001
-2.1606226E-001	6.807897255471094E-001
-2.1510801E-001	6.812199152040233E-001
-2.1403040E-001	6.823669215319352E-001
-2.1313706E-001	6.833091212483993E-001
-2.1203725E-001	6.845062799337800E-001
-2.1097192E-001	6.851525851007971E-001
-2.1021064E-001	6.862387530499650E-001
-2.0899174E-001	6.871323663465390E-001
-2.0798326E-001	6.880300735361518E-001
-2.0696105E-001	6.888127498052743E-001
-2.0603554E-001	6.899448444859821E-001
-2.0493741E-001	6.909667066017686E-001
-2.0415163E-001	6.920079759287638E-001
-2.0302863E-001	6.928248205394638E-001
-2.0196882E-001	6.938987260024296E-001
-2.0117080E-001	6.948768813163060E-001
-2.0009723E-001	6.956332714331346E-001
-1.9913892E-001	6.966051232560435E-001
-1.9804849E-001	6.973979190957742E-001
-1.9694653E-001	6.987451765066881E-001
-1.9581924E-001	6.993561305657581E-001
-1.9494933E-001	7.004418685618354E-001
-1.9386265E-001	7.014853009778932E-001
-1.9315854E-001	7.025119923745038E-001
-1.9220331E-001	7.031868118102901E-001
-1.9105841E-001	7.041800268081424E-001
-1.8999146E-001	7.051174112906069E-001
-1.8896902E-001	7.058651248614005E-001
-1.8817501E-001	7.069349538110785E-001
-1.8692262E-001	7.076614792286264E-001
-1.8598439E-001	7.086289242875754E-001
-1.8482098E-001	7.095776532546481E-001
-1.8397300E-001	7.103762500402020E-001
-1.8290052E-001	7.113642907976434E-001
-1.8221171E-001	7.121127507890819E-001
-1.8105306E-001	7.125587203988317E-001
-1.8004707E-001	7.136911999523576E-001
-1.7889361E-001	7.145450431163667E-001
-1.7768066E-001	7.156159354856704E-001
-1.7705399E-001	7.163496944752836E-001
-1.7603499E-001	7.173967414570086E-001
-1.7509992E-001	7.183159863645265E-001
-1.7373745E-001	7.189256602880860E-001
-1.7294979E-001	7.200477473023881E-001
-1.7203169E-001	7.207521502342509E-001
-1.7120439E-001	7.217713374338572E-001
-1.7014503E-001	7.226564876597237E-001
-1.6918667E-001	7.236872355195669E-001
-1.6816378E-001	7.241429516148781E-001
-1.6673850E-001	7.253982080491568E-001
-1.6603042E-001	7.260389683994735E-001
-1.6506374E-001	7.268999977106283E-001
-1.6393182E-001	7.276479327982219E-001
-1.6300957E-001	7.288050266085353E-001
-1.6195586E-001	7.294280243416651E-001
-1.6108635E-001	7.304600377877541E-001
-1.6009051E-001	7.310025232914823E-001
-1.5914941E-001	7.322225362338379E-001
-1.5805678E-001	7.328096906999662E-001
-1.5717006E-001	7.337259434301551E-001
-1.5609732E-001	7.343925658475463E-001
-1.5497643E-001	7.354898660574705E-001
-1.5427409E-001	7.362730114686276E-001
-1.5286048E-001	7.371286453196291E-001
-1.5200685E-001	7.378392032060859E-001
-1.5103725E-001	7.385696261707277E-001
-1.5003261E-001	7.394630040421522E-001
-1.4924127E-001	7.404416948073491E-001
-1.4805622E-001	7.408908608335021E-001
-1.4708446E-001	7.418395068358521E-001
-1.4612305E-001	7.429409961466753E-001
-1.4504506E-001	7.437336650435533E-001
-1.4418069E-001	7.443573226325704E-001
-1.4295413E-001	7.449102808755832E-001
-1.4229061E-001	7.461757877910564E-001
-1.4114581E-001	7.469458921830885E-001
-1.4002912E-001	7.476307755267197E-001
-1.3911802E-001	7.486425535408410E-001
-1.3832033E-001	7.492369049869971E-001
-1.3683340E-001	7.500714334762755E-001
-1.3604471E-001	7.507842717071380E-001
-1.3519333E-001	7.516425549144685E-001
-1.3411924E-001	7.525921267353830E-001
-1.3297161E-001	7.533924787960657E-001
-1.3206691E-001	7.539492506269880E-001
-1.3101348E-001	7.548827931836755E-001
-1.3001408E-001	7.555469201275229E-001
-1.2891109E-001	7.565540894866007E-001
-1.2818986E-001	7.571230711484418E-001
-1.2710804E-001	7.580503069654601E-001
-1.2596060E-001	7.588254056043091E-001
-1.2492924E-001	7.593731860871684E-001
-1.2410185E-001	7.600047530065934E-001
-1.2313061E-001	7.609109695724854E-001
-1.2195965E-001	7.617619804072149E-001
-1.2101639E-001	7.625521200696337E-001
-1.2003525E-001	7.634657993222831E-001
-1.1919070E-001	7.641659021941010E-001
-1.1810785E-001	7.648518545622043E-001
-1.1680305E-001	7.656137825990168E-001
-1.1607799E-001	7.661428043719738E-001
-1.1507486E-001	7.673797067254804E-001
-1.1411689E-001	7.680665023486934E-001
-1.1292794E-001	7.688001510569764E-001
-1.1217975E-001	7.695723449880312E-001
-1.1106882E-001	7.702672842338139E-001
-1.1002696E-001	7.709008199958038E-001
-1.0909627E-001	7.719156391642699E-001
-1.0796711E-001	7.724807060289187E-001
-1.0676950E-001	7.732069087045659E-001
-1.0596929E-001	7.740350677459311E-001
-1.0491994E-001	7.746964393816107E-001
-1.0390210E-001	7.753836567065227E-001
-1.0289745E-001	7.761284727603197E-001
-1.0216443E-001	7.770927262705492E-001
-1.0092192E-001	7.777009226933682E-001
-9.9898212E-002	7.783254184242736E-001
-9.9217452E-002	7.793128782202885E-001
-9.8219007E-002	7.796798698190202E-001
-9.6925028E-002	7.807987319236547E-001
-9.5931292E-002	7.811343483147084E-001
-9.5302880E-002	7.819777360116937E-001
-9.4349369E-002	7.828320491093201E-001
-9.3075752E-002	7.833203653626493E-001
-9.2209846E-002	7.843403421618333E-001
-9.0913154E-002	7.847674558523732E-001
-9.0030029E-002	7.858594981608533E-001
-8.9242816E-002	7.865133092359287E-001
-8.8406742E-002	7.872445022931482E-001
-8.6901367E-002	7.878740381587441E-001
-8.6085729E-002	7.883603754970778E-001
-8.5189782E-002	7.889935454727457E-001
-8.4092997E-002	7.900343144105548E-001
-8.3122313E-002	7.905309019541278E-001
-8.2350500E-002	7.912558714819316E-001
-8.0921277E-002	7.920586839318311E-001
-7.9947241E-002	7.927719057022316E-001
-7.8752697E-002	7.931639027816284E-001
-7.8065194E-002	7.942405180246759E-001
-7.7223480E-002	7.946127674675740E-001
-7.5958550E-002	7.955568188594455E-001
-7.5076535E-002	7.960534110941279E-001
-7.3932201E-002	7.967111869545249E-001
-7.3158465E-002	7.972328426937274E-001
-7.1898013E-002	7.981253520206160E-001
-7.1097709E-002	7.989000015127647E-001
-7.0112959E-002	7.996645568421594E-001
-6.8938203E-002	8.000224716961384E-001
-6.8032101E-002	8.010764691624812E-001
-6.7147642E-002	8.012217574373430E-001
-6.5821961E-002	8.020150444722063E-001
-6.4978845E-002	8.028101903144926E-001
-6.4084940E-002	8.034294632573911E-001
-6.3015491E-002	8.044188852887544E-001
-6.2044058E-002	8.047222473003239E-001
-6.1042819E-002	8.055120022208566E-001
-6.0049120E-002	8.065646019266168E-001
-5.9035245E-002	8.068922737406377E-001
-5.8185034E-002	8.072835390490489E-001
-5.7179168E-002	8.082384678096091E-001
-5.5905513E-002	8.086247856694229E-001
-5.4898117E-002	8.089912917326991E-001
-5.4121099E-002	8.100781753215323E-001
-5.2913669E-002	8.106372062530767E-001
-5.2052051E-002	8.111338027924028E-001
-5.1200528E-002	8.117943694470107E-001
-4.9955551E-002	8.125257472749114E-001
-4.9042474E-002	8.131113594256569E-001
-4.8285898E-002	8.137820392019217E-001
-4.6989165E-002	8.143770026939898E-001
-4.6206467E-002	8.150588144217519E-001
-4.5126680E-002	8.156241124702852E-001
-4.4022560E-002	8.163798654245014E-001
-4.3134049E-002	8.166687799010006E-001
-4.2234536E-002	8.175604355831954E-001
-4.1094594E-002	8.180681782095256E-001
-4.0014200E-002	8.184188069016911E-001
-3.9199207E-002	8.193137615367214E-001
-3.8013943E-002	8.199605834124926E-001
-3.7172116E-002	8.203166221027054E-001
-3.6178093E-002	8.213600717760876E-001
-3.5119940E-002	8.215326524641817E-001
-3.4260459E-002	8.224629085097019E-001
-3.3160578E-002	8.226248406701622E-001
-3.1844851E-002	8.234971142966923E-001
-3.0935150E-002	8.239122289750256E-001
-3.0220279E-002	8.248145984554736E-001
-2.9180165E-002	8.253483108915001E-001
-2.8118310E-002	8.260064657639594E-001
-2.7096875E-002	8.265498261310189E-001
-2.5951851E-002	8.271303859849777E-001
-2.5080217E-002	8.275342564340014E-001
-2.4208790E-002	8.283388971620340E-001
-2.3062037E-002	8.287800905053260E-001
-2.1988248E-002	8.296466678105077E-001
-2.0951867E-002	8.299160292913506E-001
-1.9954372E-002	8.307224502442087E-001
-1.9224653E-002	8.311633458016128E-001
-1.8090487E-002	8.316729977089175E-001
-1.7145168E-002	8.325044490672917E-001
-1.6179565E-002	8.332716557714654E-001
-1.5147353E-002	8.336663015738655E-001
-1.3958590E-002	8.340612111820103E-001
-1.3097083E-002	8.347778880777410E-001
-1.2213631E-002	8.352225335935772E-001
-1.1058385E-002	8.360763887564371E-001
-1.0198727E-002	8.363684769669959E-001
-9.0211118E-003	8.371167514059294E-001
-8.2515143E-003	8.376649605731173E-001
-7.4215699E-003	8.381951007799557E-001
-6.1913328E-003	8.388245065731028E-001
-4.9578110E-003	8.396479905479506E-001
-4.0456797E-003	8.396422472396452E-001
-3.3681283E-003	8.405374002953430E-001
-1.9834181E-003	8.408565655974005E-001
-9.9908945E-004	8.418383701807928E-001
-1.5354941E-004	8.422014107582760E-001
8.6599361E-004	8.426623545299172E-001
1.9289046E-003	8.429445282176644E-001
2.8124151E-003	8.438210824021617E-001
3.9688232E-003	8.443188878428387E-001
4.8651714E-003	8.449030875883778E-001
5.9760823E-003	8.450418390609631E-001
6.4991163E-003	8.458109962118492E-001
6.7806831E-003	8.463461344892327E-001