EC-Lab ASCII FILE
Nb header lines : 63                          

Linear Sweep Voltammetry

Run on channel : 6 (SN 13765)
User : 
Electrode connection : standard
Potential control : Ewe
Ewe ctrl range : min = -2.50 V, max = 2.50 V
Ewe,I filtering : <None>
Safety Limits :
	Do not start on E overload
Channel : Floating
Acquisition started on : 07/17/2026 14:51:48.100
Technique started on : 07/17/2026 14:51:49.097
Loaded Setting File :  C:\Users\EEM-620\Desktop\Wade\abao\20260629\N719_0629-0-1_C06.mpr
Saved on :
	File : N719_0717-h-2_C06.mpr
	Directory : C:\Users\EEM-620\Desktop\Wade\abao\20260717\
	Host : 192.109.209.200
Device : VSP-300 (SN 0025)
Address : 192.109.209.129
EC-LAB for windows v11.62 (software)
Internet server v27.00 (firmware)
Command interpretor v12.02 (firmware)
Electrode material : Au/Pd
Initial state : 
Electrolyte : NaCl (0.2M)
Comments : Fe(CN)63-/Fe(CN)64- 5.10-3 M
Cable : ULC
Reference electrode : SCE Saturated Calomel Electrode (0.241 V)
Electrode surface area : 0.001 cm2
Characteristic mass : 0.001 g
Equivalent Weight : 0.000 g/eq.
Density : 0.000 g/cm3
Volume (V) : 0.001 cm3
Cycle Definition : Charge/Discharge alternance
tR (h:m:s)          0:00:5.0000         
dER/dt (mV/h)       0.0                 
dER (mV)            0                   
dtR (s)             0.0500              
dE/dt               10.000              
dE/dt unit          mV/s                
Ei (V)              -0.800              
vs.                 Ref                 
EL (V)              0.010               
vs.                 Ref                 
record              <I>                 
dI                  0.000               
unit dI             uA                  
tI (s)              0.0000              
step percent        50                  
N                   10                  
E range min (V)     -2.500              
E range max (V)     2.500               
I Range             Auto                
I Range min         Unset               
I Range max         Unset               
I Range init        Unset               
Bandwidth           8                   

Ewe/V	<I>/mA	
-4.1611433E-001	0.000000000000000E+000
-4.1657639E-001	0.000000000000000E+000
-4.1580889E-001	0.000000000000000E+000
-4.1656870E-001	0.000000000000000E+000
-4.1614106E-001	0.000000000000000E+000
-4.1627854E-001	0.000000000000000E+000
-4.1695437E-001	0.000000000000000E+000
-4.1641596E-001	0.000000000000000E+000
-4.1697347E-001	0.000000000000000E+000
-4.1533923E-001	0.000000000000000E+000
-4.1536215E-001	0.000000000000000E+000
-4.1726366E-001	0.000000000000000E+000
-4.1624415E-001	0.000000000000000E+000
-4.1647327E-001	0.000000000000000E+000
-4.1635108E-001	0.000000000000000E+000
-4.1596544E-001	0.000000000000000E+000
-4.1577449E-001	0.000000000000000E+000
-4.1656873E-001	0.000000000000000E+000
-4.1488868E-001	0.000000000000000E+000
-4.1554162E-001	0.000000000000000E+000
-4.1677108E-001	0.000000000000000E+000
-4.1645798E-001	0.000000000000000E+000
-4.1643891E-001	0.000000000000000E+000
-4.1619071E-001	0.000000000000000E+000
-4.1608763E-001	0.000000000000000E+000
-4.1601506E-001	0.000000000000000E+000
-4.1526669E-001	0.000000000000000E+000
-4.1665655E-001	0.000000000000000E+000
-4.1592342E-001	0.000000000000000E+000
-4.1618308E-001	0.000000000000000E+000
-4.1616398E-001	0.000000000000000E+000
-4.1634724E-001	0.000000000000000E+000
-4.1603798E-001	0.000000000000000E+000
-4.1598833E-001	0.000000000000000E+000
-4.1628236E-001	0.000000000000000E+000
-4.1677490E-001	0.000000000000000E+000
-4.1653436E-001	0.000000000000000E+000
-4.1565233E-001	0.000000000000000E+000
-4.1632435E-001	0.000000000000000E+000
-4.1717201E-001	0.000000000000000E+000
-4.1640836E-001	0.000000000000000E+000
-4.1610670E-001	0.000000000000000E+000
-4.1596544E-001	0.000000000000000E+000
-4.1644654E-001	0.000000000000000E+000
-4.1649619E-001	0.000000000000000E+000
-4.1654581E-001	0.000000000000000E+000
-4.1617924E-001	0.000000000000000E+000
-4.1672528E-001	0.000000000000000E+000
-4.1644272E-001	0.000000000000000E+000
-4.1798910E-001	0.000000000000000E+000
-4.1646945E-001	0.000000000000000E+000
-4.1552633E-001	0.000000000000000E+000
-4.1552252E-001	0.000000000000000E+000
-4.1613346E-001	0.000000000000000E+000
-4.1612196E-001	0.000000000000000E+000
-4.1616017E-001	0.000000000000000E+000
-4.1641217E-001	0.000000000000000E+000
-4.1587380E-001	0.000000000000000E+000
-4.1556069E-001	0.000000000000000E+000
-4.1553393E-001	0.000000000000000E+000
-4.1639689E-001	0.000000000000000E+000
-4.2147902E-001	0.000000000000000E+000
-4.2192578E-001	0.000000000000000E+000
-7.9002452E-001	-2.271525833341810E+000
-7.8872579E-001	-2.254208271978065E+000
-7.8744757E-001	-2.232796733578041E+000
-7.8678274E-001	-2.215080689247941E+000
-7.8584754E-001	-2.200830057539321E+000
-7.8467691E-001	-2.188323659753344E+000
-7.8388393E-001	-2.176081021870161E+000
-7.8266019E-001	-2.164666369557374E+000
-7.8198314E-001	-2.155011455769877E+000
-7.8076357E-001	-2.145107092956707E+000
-7.7995580E-001	-2.136329829140934E+000
-7.7880019E-001	-2.127823673218749E+000
-7.7762413E-001	-2.119316774661890E+000
-7.7671665E-001	-2.110344895610107E+000
-7.7590382E-001	-2.102642271191417E+000
-7.7477545E-001	-2.094258013698774E+000
-7.7369922E-001	-2.086472994199481E+000
-7.7286422E-001	-2.078709386428361E+000
-7.7163458E-001	-2.070717356271210E+000
-7.7087837E-001	-2.062196547234507E+000
-7.6966822E-001	-2.054351525206791E+000
-7.6881653E-001	-2.046505950115348E+000
-7.6768613E-001	-2.038819290642504E+000
-7.6684529E-001	-2.031517089241092E+000
-7.6572257E-001	-2.023324939939696E+000
-7.6482660E-001	-2.015255641596344E+000
-7.6369923E-001	-2.007991571117330E+000
-7.6265746E-001	-2.001090297820388E+000
-7.6180011E-001	-1.993353921692925E+000
-7.6077032E-001	-1.986116984652144E+000
-7.5990653E-001	-1.978004113667547E+000
-7.5860697E-001	-1.971033160146622E+000
-7.5778908E-001	-1.963023995359737E+000
-7.5686383E-001	-1.955657823494189E+000
-7.5585872E-001	-1.948603550413097E+000
-7.5474429E-001	-1.941329650580887E+000
-7.5380856E-001	-1.934297105008193E+000
-7.5261086E-001	-1.927177861056951E+000
-7.5190473E-001	-1.920271819664375E+000
-7.5060910E-001	-1.912770490452619E+000
-7.4968499E-001	-1.905769990274194E+000
-7.4892116E-001	-1.898374942993678E+000
-7.4777049E-001	-1.891341422904025E+000
-7.4702042E-001	-1.884022784453862E+000
-7.4592870E-001	-1.877311015846553E+000
-7.4480021E-001	-1.870186290673090E+000
-7.4384129E-001	-1.863048740559158E+000
-7.4263328E-001	-1.855914521675871E+000
-7.4200642E-001	-1.848868987074608E+000
-7.4075717E-001	-1.842132985591874E+000
-7.3992258E-001	-1.834983040611100E+000
-7.3873830E-001	-1.828365878098545E+000
-7.3771375E-001	-1.821252848539089E+000
-7.3669910E-001	-1.814291448020779E+000
-7.3559338E-001	-1.807040610799088E+000
-7.3497987E-001	-1.800438236583155E+000
-7.3395413E-001	-1.793439691514813E+000
-7.3265624E-001	-1.786016165658282E+000
-7.3174119E-001	-1.778784536101208E+000
-7.3102421E-001	-1.771771226899659E+000
-7.2974634E-001	-1.764962078520542E+000
-7.2903883E-001	-1.757699527744151E+000
-7.2774547E-001	-1.752238595099360E+000
-7.2686875E-001	-1.744696923704058E+000
-7.2560179E-001	-1.737974789098088E+000
-7.2476530E-001	-1.731411548124422E+000
-7.2377545E-001	-1.724626220210837E+000
-7.2277158E-001	-1.718031423293072E+000
-7.2181213E-001	-1.710455299527556E+000
-7.2068846E-001	-1.703312477855768E+000
-7.1981996E-001	-1.696753585841638E+000
-7.1886832E-001	-1.689758203923697E+000
-7.1783257E-001	-1.683159159565417E+000
-7.1672827E-001	-1.676650027793960E+000
-7.1576840E-001	-1.669875152409080E+000
-7.1499085E-001	-1.663064272223604E+000
-7.1379638E-001	-1.656511909431885E+000
-7.1269953E-001	-1.650573234591217E+000
-7.1186453E-001	-1.643423626645898E+000
-7.1103644E-001	-1.636623267774227E+000
-7.0985115E-001	-1.630053758897163E+000
-7.0902812E-001	-1.623058108098549E+000
-7.0769882E-001	-1.616581962616355E+000
-7.0680004E-001	-1.610163767028745E+000
-7.0570952E-001	-1.603439655820981E+000
-7.0461345E-001	-1.596249636124679E+000
-7.0366317E-001	-1.589903482212734E+000
-7.0280635E-001	-1.583337739385943E+000
-7.0141900E-001	-1.575896062232829E+000
-7.0066988E-001	-1.570172531434370E+000
-7.0010686E-001	-1.563847257031341E+000
-6.9874382E-001	-1.557035125378107E+000
-6.9778293E-001	-1.550826410109829E+000
-6.9702458E-001	-1.544106572452520E+000
-6.9581205E-001	-1.537442637814415E+000
-6.9477922E-001	-1.531476341119657E+000
-6.9382161E-001	-1.525100042560592E+000
-6.9278461E-001	-1.517705559178628E+000
-6.9183099E-001	-1.511548504800676E+000
-6.9055665E-001	-1.505255981175988E+000
-6.8957955E-001	-1.498786591770429E+000
-6.8883663E-001	-1.491917282618854E+000
-6.8765360E-001	-1.485540468521698E+000
-6.8682903E-001	-1.479386345878336E+000
-6.8577802E-001	-1.473321368158963E+000
-6.8513036E-001	-1.467010787101806E+000
-6.8367249E-001	-1.459998886187549E+000
-6.8297833E-001	-1.452662029614054E+000
-6.8200743E-001	-1.446791284200215E+000
-6.8084419E-001	-1.441299769835133E+000
-6.7985010E-001	-1.435332353882217E+000
-6.7872363E-001	-1.427940884949983E+000
-6.7789286E-001	-1.422595792928423E+000
-6.7680115E-001	-1.416399731128307E+000
-6.7585570E-001	-1.409725774005844E+000
-6.7480552E-001	-1.403657615460727E+000
-6.7382526E-001	-1.397648972355654E+000
-6.7284745E-001	-1.390973549207168E+000
-6.7180669E-001	-1.384913527993142E+000
-6.7092484E-001	-1.378376001561125E+000
-6.6988885E-001	-1.371915804708195E+000
-6.6891664E-001	-1.365791704505682E+000
-6.6780698E-001	-1.360363586633296E+000
-6.6681963E-001	-1.353660554395759E+000
-6.6592115E-001	-1.347433443560646E+000
-6.6493410E-001	-1.341719250461459E+000
-6.6370595E-001	-1.335351020649632E+000
-6.6260111E-001	-1.329433318641449E+000
-6.6195804E-001	-1.322661266410472E+000
-6.6054612E-001	-1.316759342672643E+000
-6.5959066E-001	-1.310778731825175E+000
-6.5868664E-001	-1.304648481246886E+000
-6.5757293E-001	-1.297813810132169E+000
-6.5693372E-001	-1.291721265625071E+000
-6.5599859E-001	-1.286363744379509E+000
-6.5481716E-001	-1.279866583507365E+000
-6.5378219E-001	-1.273809920030605E+000
-6.5290004E-001	-1.268227562144784E+000
-6.5168852E-001	-1.261853779355683E+000
-6.5100211E-001	-1.255533184529469E+000
-6.4958888E-001	-1.249775488895395E+000
-6.4884937E-001	-1.243809943811763E+000
-6.4797246E-001	-1.237935329445007E+000
-6.4679283E-001	-1.231728102735897E+000
-6.4581937E-001	-1.225269202556872E+000
-6.4497322E-001	-1.219375251781220E+000
-6.4367366E-001	-1.213553884653024E+000
-6.4282942E-001	-1.207164894927429E+000
-6.4177239E-001	-1.201296725586559E+000
-6.4070094E-001	-1.195217000251564E+000
-6.3991010E-001	-1.189548615780140E+000
-6.3882786E-001	-1.183294059663722E+000
-6.3789469E-001	-1.177233091796988E+000
-6.3677245E-001	-1.171323808618748E+000
-6.3593930E-001	-1.165755157531412E+000
-6.3517779E-001	-1.159337421120314E+000
-6.3373178E-001	-1.153387290572747E+000
-6.3283122E-001	-1.147263913656827E+000
-6.3198614E-001	-1.141960540303483E+000
-6.3086766E-001	-1.135792728111265E+000
-6.2992215E-001	-1.129777059234951E+000
-6.2887734E-001	-1.123967969859088E+000
-6.2784868E-001	-1.118545867222275E+000
-6.2692493E-001	-1.112423930041221E+000
-6.2591326E-001	-1.105887899281277E+000
-6.2486368E-001	-1.100681073135802E+000
-6.2390637E-001	-1.095003354328647E+000
-6.2269896E-001	-1.089150777994997E+000
-6.2195230E-001	-1.083242265300619E+000
-6.2090266E-001	-1.077526012366565E+000
-6.1993378E-001	-1.071325074156120E+000
-6.1899650E-001	-1.065711701633752E+000
-6.1786675E-001	-1.059730426994742E+000
-6.1666054E-001	-1.053984053765776E+000
-6.1592090E-001	-1.047582953340473E+000
-6.1501658E-001	-1.042277852832164E+000
-6.1371452E-001	-1.037430987943817E+000
-6.1289126E-001	-1.031323811384262E+000
-6.1206210E-001	-1.025601468093388E+000
-6.1082810E-001	-1.019352904072512E+000
-6.1004984E-001	-1.013759618832003E+000
-6.0881537E-001	-1.007729253726289E+000
-6.0778010E-001	-1.001831515933624E+000
-6.0702527E-001	-9.960406530234529E-001
-6.0594600E-001	-9.906451150430811E-001
-6.0496384E-001	-9.849003532694440E-001
-6.0370719E-001	-9.792117174300863E-001
-6.0285461E-001	-9.735230059953919E-001
-6.0179824E-001	-9.674669872555430E-001
-6.0073549E-001	-9.621616248731186E-001
-5.9984666E-001	-9.561117567397908E-001
-5.9879452E-001	-9.504062889350795E-001
-5.9790397E-001	-9.448154431887019E-001
-5.9687328E-001	-9.396108877327700E-001
-5.9577155E-001	-9.334700322813489E-001
-5.9490806E-001	-9.281953914052359E-001
-5.9380698E-001	-9.221643693745154E-001
-5.9298319E-001	-9.166283215637527E-001
-5.9179318E-001	-9.110475432326481E-001
-5.9088749E-001	-9.056719727814215E-001
-5.8952647E-001	-8.996358360681231E-001
-5.8890486E-001	-8.942899117987883E-001
-5.8790308E-001	-8.890596630948558E-001
-5.8703977E-001	-8.834721584153558E-001
-5.8590376E-001	-8.779177693305180E-001
-5.8483291E-001	-8.720808222337979E-001
-5.8398521E-001	-8.662151401025433E-001
-5.8273524E-001	-8.606800076862164E-001
-5.8188605E-001	-8.551065734139236E-001
-5.8107847E-001	-8.499911169968133E-001
-5.7984608E-001	-8.442761430309904E-001
-5.7897794E-001	-8.388890909651909E-001
-5.7783061E-001	-8.336071134251384E-001
-5.7692778E-001	-8.279228483637198E-001
-5.7614714E-001	-8.222026474497923E-001
-5.7478917E-001	-8.166857482995029E-001
-5.7406938E-001	-8.113734182660250E-001
-5.7284802E-001	-8.061344810284687E-001
-5.7196152E-001	-8.009347432741389E-001
-5.7101268E-001	-7.953841499984264E-001
-5.6985229E-001	-7.896045824614859E-001
-5.6881183E-001	-7.840544508287195E-001
-5.6802505E-001	-7.792628175682470E-001
-5.6667650E-001	-7.731195794425840E-001
-5.6581086E-001	-7.684656120146869E-001
-5.6497425E-001	-7.626495518618182E-001
-5.6396872E-001	-7.577995138306539E-001
-5.6283259E-001	-7.523758717019220E-001
-5.6195372E-001	-7.464741717472094E-001
-5.6086302E-001	-7.412552013573368E-001
-5.5971664E-001	-7.358641412661058E-001
-5.5879140E-001	-7.303239865231728E-001
-5.5780071E-001	-7.245038415960714E-001
-5.5698448E-001	-7.196073314106037E-001
-5.5595225E-001	-7.143520128357908E-001
-5.5509269E-001	-7.092423372108616E-001
-5.5388612E-001	-7.040032394644307E-001
-5.5293316E-001	-6.986831361686123E-001
-5.5193794E-001	-6.933888270071265E-001
-5.5083382E-001	-6.878241992521072E-001
-5.4985929E-001	-6.827531456313640E-001
-5.4874504E-001	-6.774160812988321E-001
-5.4792762E-001	-6.723420538375189E-001
-5.4680079E-001	-6.666246523597712E-001
-5.4601067E-001	-6.611291290847223E-001
-5.4484743E-001	-6.562753163267523E-001
-5.4388899E-001	-6.510541837110555E-001
-5.4283869E-001	-6.454171952963961E-001
-5.4209310E-001	-6.402670582528209E-001
-5.4081446E-001	-6.355568674841416E-001
-5.3974658E-001	-6.302746558492907E-001
-5.3904659E-001	-6.246747973331028E-001
-5.3813118E-001	-6.198320398452073E-001
-5.3678215E-001	-6.141234662521740E-001
-5.3593975E-001	-6.095518336275889E-001
-5.3499597E-001	-6.042645122441987E-001
-5.3384995E-001	-5.991586021241364E-001
-5.3304160E-001	-5.938183051982415E-001
-5.3194135E-001	-5.886228043861976E-001
-5.3081560E-001	-5.838280838431515E-001
-5.2999187E-001	-5.782840196043257E-001
-5.2865148E-001	-5.734744525893944E-001
-5.2792448E-001	-5.683649930893644E-001
-5.2691370E-001	-5.633016640527373E-001
-5.2599430E-001	-5.578925690993115E-001
-5.2480608E-001	-5.530049327843551E-001
-5.2404726E-001	-5.476985155018408E-001
-5.2305663E-001	-5.427779398152950E-001
-5.2190447E-001	-5.373321601224159E-001
-5.2088886E-001	-5.327071751709358E-001
-5.2001399E-001	-5.274844366799432E-001
-5.1906669E-001	-5.224552953408850E-001
-5.1798630E-001	-5.174012035131454E-001
-5.1699466E-001	-5.122954200535146E-001
-5.1549804E-001	-5.071556981377032E-001
-5.1476288E-001	-5.023066473917841E-001
-5.1377714E-001	-4.966297577344516E-001
-5.1290417E-001	-4.919234906081780E-001
-5.1187807E-001	-4.867618862125607E-001
-5.1078045E-001	-4.814904222649599E-001
-5.0983614E-001	-4.768484044406129E-001
-5.0898165E-001	-4.714601659688396E-001
-5.0773096E-001	-4.664530815487642E-001
-5.0691217E-001	-4.619228984056809E-001
-5.0585353E-001	-4.567161389909717E-001
-5.0503635E-001	-4.519998312548354E-001
-5.0382787E-001	-4.467029485989498E-001
-5.0263339E-001	-4.413839054938520E-001
-5.0191444E-001	-4.366916438771613E-001
-5.0060570E-001	-4.315592216504012E-001
-4.9960926E-001	-4.265492959292958E-001
-4.9841094E-001	-4.215303135138981E-001
-4.9799430E-001	-4.166572927318919E-001
-4.9664879E-001	-4.116063188347541E-001
-4.9536523E-001	-4.069500368916312E-001
-4.9464917E-001	-4.016725188309089E-001
-4.9371213E-001	-3.968888414264828E-001
-4.9244106E-001	-3.921408672575597E-001
-4.9167359E-001	-3.871198098035542E-001
-4.9072558E-001	-3.823908569153262E-001
-4.8953134E-001	-3.774526440021060E-001
-4.8842224E-001	-3.724652432438083E-001
-4.8785910E-001	-3.677386396599029E-001
-4.8688605E-001	-3.627367218776172E-001
-4.8555478E-001	-3.579584561219376E-001
-4.8428023E-001	-3.528044111336817E-001
-4.8356885E-001	-3.477955228785219E-001
-4.8261914E-001	-3.430983667365379E-001
-4.8159054E-001	-3.383738978731408E-001
-4.8061365E-001	-3.336473899561865E-001
-4.7923931E-001	-3.290449301539740E-001
-4.7841331E-001	-3.242094713021757E-001
-4.7761664E-001	-3.190377134608386E-001
-4.7657394E-001	-3.146988960603867E-001
-4.7550502E-001	-3.099717730311338E-001
-4.7493777E-001	-3.049408782951392E-001
-4.7385275E-001	-2.999958666041496E-001
-4.7238857E-001	-2.954567706939943E-001
-4.7184518E-001	-2.906352793452909E-001
-4.7076625E-001	-2.857177627652332E-001
-4.6981376E-001	-2.810205888101232E-001
-4.6859899E-001	-2.762795609456505E-001
-4.6756971E-001	-2.715323174510278E-001
-4.6662959E-001	-2.667737954562606E-001
-4.6546248E-001	-2.619660697808417E-001
-4.6479937E-001	-2.573037445545184E-001
-4.6384782E-001	-2.526967255451238E-001
-4.6250927E-001	-2.477232802452312E-001
-4.6148703E-001	-2.433459768945033E-001
-4.6056235E-001	-2.385844256797867E-001
-4.5937419E-001	-2.333541460059307E-001
-4.5867237E-001	-2.284340343074147E-001
-4.5732486E-001	-2.240797274366573E-001
-4.5639193E-001	-2.196004140984131E-001
-4.5574996E-001	-2.150975692938362E-001
-4.5482978E-001	-2.104715337907823E-001
-4.5365396E-001	-2.059692905663902E-001
-4.5293316E-001	-2.012312332490662E-001
-4.5181313E-001	-1.964737849861931E-001
-4.5104018E-001	-1.917489022706392E-001
-4.4960767E-001	-1.873363513310538E-001
-4.4867110E-001	-1.825817731829993E-001
-4.4789267E-001	-1.778198255951757E-001
-4.4668880E-001	-1.733576629517801E-001
-4.4545785E-001	-1.689373377572605E-001
-4.4463131E-001	-1.642593429776337E-001
-4.4349137E-001	-1.597198503333384E-001
-4.4263995E-001	-1.550087821842343E-001
-4.4173193E-001	-1.503567357661000E-001
-4.4054830E-001	-1.460852822357857E-001
-4.3939903E-001	-1.413985363690666E-001
-4.3862790E-001	-1.368525175063049E-001
-4.3741837E-001	-1.321550162371105E-001
-4.3670842E-001	-1.274808325494323E-001
-4.3549946E-001	-1.231903969887614E-001
-4.3434694E-001	-1.188147695286685E-001
-4.3365684E-001	-1.145715768380946E-001
-4.3264619E-001	-1.096449987790378E-001
-4.3155327E-001	-1.049201980371164E-001
-4.3069682E-001	-1.005022370044161E-001
-4.2986199E-001	-9.569636092486766E-002
-4.2853492E-001	-9.154421871493520E-002
-4.2740992E-001	-8.706368119199293E-002
-4.2628318E-001	-8.237996094653144E-002
-4.2594212E-001	-7.818399872458359E-002
-4.2464641E-001	-7.346544566044089E-002
-4.2374760E-001	-6.896802019845251E-002
-4.2275247E-001	-6.434424172277825E-002
-4.2147487E-001	-5.970917700755357E-002
-4.2074710E-001	-5.533722245686312E-002
-4.1980544E-001	-5.089548600039844E-002
-4.1833827E-001	-4.575959108287753E-002
-4.1728178E-001	-4.133359610568743E-002
-4.1632640E-001	-3.649297380812974E-002
-4.1527227E-001	-3.215415354956069E-002
-4.1450769E-001	-2.754530067110061E-002
-4.1373035E-001	-2.335949489820954E-002
-4.1241744E-001	-1.879276316914778E-002
-4.1136494E-001	-1.456666826613369E-002
-4.1043302E-001	-1.022066075259954E-002
-4.0949073E-001	-5.781490895767814E-003
-4.0859181E-001	-1.299910675001813E-003
-4.0739200E-001	2.882031634928547E-003
-4.0617374E-001	7.464418796223088E-003
-4.0489787E-001	1.163944374674902E-002
-4.0426245E-001	1.629364706739714E-002
-4.0316895E-001	2.062912793028060E-002
-4.0217704E-001	2.489654241049610E-002
-4.0142247E-001	2.927835270572728E-002
-4.0004122E-001	3.335861547472713E-002
-3.9921573E-001	3.789171231134481E-002
-3.9819601E-001	4.228448776390248E-002
-3.9718011E-001	4.654007641812807E-002
-3.9639720E-001	5.095421099448916E-002
-3.9515731E-001	5.534490261709801E-002
-3.9430457E-001	5.986396385149539E-002
-3.9318177E-001	6.407156095115663E-002
-3.9214912E-001	6.772717899056496E-002
-3.9108074E-001	7.184812568132271E-002
-3.9027601E-001	7.608434806267428E-002
-3.8952404E-001	8.061781702390713E-002
-3.8857579E-001	8.483977649914293E-002
-3.8748887E-001	8.925358028392516E-002
-3.8607055E-001	9.330275294769130E-002
-3.8540670E-001	9.802293545497509E-002
-3.8440561E-001	1.019882511485508E-001
-3.8314667E-001	1.064199033636510E-001
-3.8226652E-001	1.109299299687014E-001
-3.8096830E-001	1.159090524953272E-001
-3.7980777E-001	1.201264661771386E-001
-3.7876320E-001	1.241725487462071E-001
-3.7807661E-001	1.283966576464883E-001
-3.7714151E-001	1.326907552364800E-001
-3.7587407E-001	1.367800632077780E-001
-3.7462878E-001	1.410272231373959E-001
-3.7409604E-001	1.453004935756325E-001
-3.7324157E-001	1.495048538609235E-001
-3.7206346E-001	1.536915428230761E-001
-3.7058595E-001	1.579941797622104E-001
-3.7002447E-001	1.625145034071194E-001
-3.6899629E-001	1.669440850318680E-001
-3.6808965E-001	1.704073949647995E-001
-3.6687967E-001	1.744790710853761E-001
-3.6594245E-001	1.786170761924294E-001
-3.6500233E-001	1.827959502805721E-001
-3.6386988E-001	1.865924242874595E-001
-3.6339733E-001	1.910003775006368E-001
-3.6192581E-001	1.953228245558285E-001
-3.6110750E-001	1.991975219422590E-001
-3.6000988E-001	2.032135096551089E-001
-3.5871804E-001	2.074158186506898E-001
-3.5793057E-001	2.112856259881131E-001
-3.5727620E-001	2.157913884148004E-001
-3.5614216E-001	2.197651215311551E-001
-3.5494024E-001	2.234768317496210E-001
-3.5398060E-001	2.274609966272557E-001
-3.5329035E-001	2.314705195733242E-001
-3.5170254E-001	2.358673315588238E-001
-3.5105091E-001	2.399135305442748E-001
-3.4983361E-001	2.439529886444901E-001
-3.4920436E-001	2.480080017682029E-001
-3.4801388E-001	2.514375511004974E-001
-3.4706232E-001	2.550433330580684E-001
-3.4596536E-001	2.597183960800376E-001
-3.4526065E-001	2.642959100021800E-001
-3.4400424E-001	2.683866290137926E-001
-3.4312370E-001	2.719632140878181E-001
-3.4200794E-001	2.758793246207973E-001
-3.4122819E-001	2.799517856923139E-001
-3.3999863E-001	2.838591652818873E-001
-3.3909124E-001	2.879093953330347E-001
-3.3787909E-001	2.917294214583108E-001
-3.3713281E-001	2.954377755177795E-001
-3.3662969E-001	2.995412018615928E-001
-3.3511272E-001	3.033161769724551E-001
-3.3389533E-001	3.074029105267041E-001
-3.3299154E-001	3.112649292316274E-001
-3.3198068E-001	3.152459053391672E-001
-3.3070257E-001	3.192632136935436E-001
-3.2967246E-001	3.231068750183441E-001
-3.2907024E-001	3.270812408170780E-001
-3.2779473E-001	3.306931773269612E-001
-3.2728666E-001	3.346064885547335E-001
-3.2588029E-001	3.385511566367407E-001
-3.2474974E-001	3.427667599750972E-001
-3.2431310E-001	3.464137053600067E-001
-3.2238039E-001	3.506044314277386E-001
-3.2199737E-001	3.543205164843197E-001
-3.2080135E-001	3.582194659651980E-001
-3.2011193E-001	3.627612152033386E-001
-3.1897092E-001	3.662169099399719E-001
-3.1795269E-001	3.700184936945643E-001
-3.1703395E-001	3.736065177039976E-001
-3.1607684E-001	3.773502404188449E-001
-3.1456965E-001	3.810712192207575E-001
-3.1395939E-001	3.849048720741699E-001
-3.1319040E-001	3.887894968914649E-001
-3.1244117E-001	3.925456610956672E-001
-3.1105974E-001	3.963312355401127E-001
-3.0993384E-001	4.003178671140368E-001
-3.0897102E-001	4.039430324402117E-001
-3.0777997E-001	4.074689936186680E-001
-3.0755290E-001	4.114775702495264E-001
-3.0619889E-001	4.151109724685000E-001
-3.0499187E-001	4.190795837111914E-001
-3.0400851E-001	4.225206457906303E-001
-3.0255878E-001	4.265784501201573E-001
-3.0174166E-001	4.303110787410334E-001
-3.0062145E-001	4.338681257019452E-001
-3.0000216E-001	4.378700736806209E-001
-2.9908335E-001	4.411481273257074E-001
-2.9792893E-001	4.450092866878808E-001
-2.9698965E-001	4.484873098360911E-001
-2.9610080E-001	4.523595363867514E-001
-2.9491141E-001	4.554456984279334E-001
-2.9397878E-001	4.596635841204382E-001
-2.9294476E-001	4.632145000138790E-001
-2.9243606E-001	4.674232481392453E-001
-2.9060793E-001	4.707790586169354E-001
-2.8987804E-001	4.742391531666126E-001
-2.8852531E-001	4.782178363314369E-001
-2.8826186E-001	4.819186645411506E-001
-2.8675529E-001	4.857906541890582E-001
-2.8585336E-001	4.889899356145975E-001
-2.8502691E-001	4.927476173335759E-001
-2.8409544E-001	4.964889083057660E-001
-2.8321216E-001	5.002215921367519E-001
-2.8177458E-001	5.039350896797803E-001
-2.8132445E-001	5.074467850780042E-001
-2.8010318E-001	5.117923617401456E-001
-2.7906784E-001	5.151160998200925E-001
-2.7823249E-001	5.186433792804150E-001
-2.7699593E-001	5.221645028912469E-001
-2.7598202E-001	5.254619062912660E-001
-2.7489415E-001	5.289394891476378E-001
-2.7411890E-001	5.327453203499317E-001
-2.7299273E-001	5.362009882099068E-001
-2.7210438E-001	5.397625107585462E-001
-2.7112621E-001	5.435170075269742E-001
-2.7032244E-001	5.466676754532003E-001
-2.6849219E-001	5.503796299612942E-001
-2.6803848E-001	5.540493195531551E-001
-2.6713377E-001	5.575801218273453E-001
-2.6605535E-001	5.614333233283002E-001
-2.6533788E-001	5.646342507529036E-001
-2.6417077E-001	5.680396733460640E-001
-2.6287732E-001	5.715677944749054E-001
-2.6214600E-001	5.749350922113239E-001
-2.6096568E-001	5.787893517259650E-001
-2.5968787E-001	5.819831518111429E-001
-2.5945878E-001	5.859204377565099E-001
-2.5794682E-001	5.892884231506716E-001
-2.5708079E-001	5.923175969057635E-001
-2.5600892E-001	5.961459205934290E-001
-2.5472042E-001	6.000456691644649E-001
-2.5407791E-001	6.032322583099199E-001
-2.5324386E-001	6.058326407715122E-001
-2.5192374E-001	6.099985246538623E-001
-2.5093886E-001	6.131165136617653E-001
-2.5018391E-001	6.165864859466232E-001
-2.4875993E-001	6.198285276823126E-001
-2.4809423E-001	6.234802705132330E-001
-2.4736369E-001	6.261580029169376E-001
-2.4553427E-001	6.301587655174501E-001
-2.4491656E-001	6.334885439525042E-001
-2.4390252E-001	6.369009813857325E-001
-2.4322273E-001	6.403307914044019E-001
-2.4176393E-001	6.440320470956751E-001
-2.4074401E-001	6.473041359203044E-001
-2.4016257E-001	6.507857278403293E-001
-2.3889281E-001	6.539488533442777E-001
-2.3835620E-001	6.577034650304889E-001
-2.3711580E-001	6.607258142558496E-001
-2.3632008E-001	6.640931800324541E-001
-2.3523314E-001	6.672506306872328E-001
-2.3421432E-001	6.706399896216606E-001
-2.3322654E-001	6.741395067757998E-001
-2.3234695E-001	6.774338319621673E-001
-2.3062576E-001	6.805381851477748E-001
-2.2988123E-001	6.846640657306851E-001
-2.2909079E-001	6.875208779065680E-001
-2.2805519E-001	6.905019935910381E-001
-2.2685196E-001	6.937973312621128E-001
-2.2575615E-001	6.969422524174060E-001
-2.2490110E-001	7.005641855023512E-001
-2.2430299E-001	7.036199853121712E-001
-2.2312026E-001	7.067616982730449E-001
-2.2197816E-001	7.098486140173925E-001
-2.2118631E-001	7.131676062665611E-001
-2.2004993E-001	7.163023847258740E-001
-2.1887502E-001	7.196912502814712E-001
-2.1803364E-001	7.228114520096103E-001
-2.1694648E-001	7.260163584379118E-001
-2.1603104E-001	7.291912146709656E-001
-2.1529487E-001	7.326824758891721E-001
-2.1434264E-001	7.351794998264989E-001
-2.1356557E-001	7.389196469630210E-001
-2.1167770E-001	7.420721186531942E-001
-2.1126065E-001	7.452925102854202E-001
-2.1026365E-001	7.483099272021718E-001
-2.0897156E-001	7.515363578029257E-001
-2.0815571E-001	7.544186019502321E-001
-2.0718122E-001	7.578840849714142E-001
-2.0609131E-001	7.611207998599170E-001
-2.0538937E-001	7.636053922851662E-001
-2.0436926E-001	7.672221925523548E-001
-2.0311028E-001	7.703592303312510E-001
-2.0203823E-001	7.737621299818791E-001
-2.0102656E-001	7.768102698717936E-001
-2.0027839E-001	7.799617266627390E-001
-1.9933072E-001	7.827201204524172E-001
-1.9815837E-001	7.862337358571869E-001
-1.9687650E-001	7.893103127900218E-001
-1.9584852E-001	7.924739333490560E-001
-1.9516547E-001	7.954365802859833E-001
-1.9369210E-001	7.985493745080667E-001
-1.9310145E-001	8.013225604814522E-001
-1.9210276E-001	8.044964762197608E-001
-1.9104542E-001	8.076085082844937E-001
-1.9010963E-001	8.109350339682022E-001
-1.8915568E-001	8.139631539859131E-001
-1.8764247E-001	8.167622996333783E-001
-1.8700598E-001	8.195976290713851E-001
-1.8623957E-001	8.231930320185619E-001
-1.8519962E-001	8.258042248713071E-001
-1.8421842E-001	8.292144632173919E-001
-1.8291453E-001	8.319617492697503E-001
-1.8188098E-001	8.348177776292527E-001
-1.8118966E-001	8.378351990271513E-001
-1.8016919E-001	8.404824755562104E-001
-1.7903465E-001	8.435567853351422E-001
-1.7788897E-001	8.462952637562040E-001
-1.7697543E-001	8.492267511230480E-001
-1.7583367E-001	8.521648191467497E-001
-1.7513281E-001	8.548812144608418E-001
-1.7367223E-001	8.581263779421988E-001
-1.7348561E-001	8.608680142572638E-001
-1.7196743E-001	8.639109602404931E-001
-1.7121543E-001	8.670216950613412E-001
-1.6983448E-001	8.696374012916177E-001
-1.6920462E-001	8.724831142533578E-001
-1.6762263E-001	8.754270007764813E-001
-1.6677369E-001	8.784278672602452E-001
-1.6591264E-001	8.818615590603072E-001
-1.6495727E-001	8.857464692382884E-001
-1.6455804E-001	8.879028244150966E-001
-1.6283251E-001	8.907007321946026E-001
-1.6196561E-001	8.933554415901535E-001
-1.6116782E-001	8.958447687327906E-001
-1.5992892E-001	8.988579782859567E-001
-1.5912777E-001	9.015251047633335E-001
-1.5776101E-001	9.046612421495555E-001
-1.5702559E-001	9.075115076093763E-001
-1.5608820E-001	9.103252720777615E-001
-1.5509839E-001	9.127274560106731E-001
-1.5427090E-001	9.155764961960156E-001
-1.5317357E-001	9.186827309981602E-001
-1.5196998E-001	9.214835413519822E-001
-1.5092990E-001	9.246951329211429E-001
-1.4978866E-001	9.272977425544369E-001
-1.4899306E-001	9.301863690639625E-001
-1.4798240E-001	9.330243175780346E-001
-1.4719434E-001	9.356892478686767E-001
-1.4606132E-001	9.383725610543836E-001
-1.4514604E-001	9.413806496670976E-001
-1.4412735E-001	9.440091332213729E-001
-1.4321759E-001	9.466188385806689E-001
-1.4169049E-001	9.493780628674564E-001
-1.4118291E-001	9.524276564723504E-001
-1.3993153E-001	9.560326232954299E-001
-1.3906881E-001	9.579809541227640E-001
-1.3823178E-001	9.604895319892481E-001
-1.3704532E-001	9.634168535746923E-001
-1.3595203E-001	9.661361910402810E-001
-1.3489284E-001	9.687050173769691E-001
-1.3418818E-001	9.711695679084009E-001
-1.3315088E-001	9.740494164051832E-001
-1.3186325E-001	9.763636661396520E-001
-1.3119084E-001	9.790790907486748E-001
-1.2988436E-001	9.815987077698889E-001
-1.2914717E-001	9.846501974044046E-001
-1.2806003E-001	9.870894439518452E-001
-1.2746093E-001	9.898773085315469E-001
-1.2612648E-001	9.923137778209288E-001
-1.2506966E-001	9.948338644096140E-001
-1.2442662E-001	9.976249580668330E-001
-1.2256189E-001	1.000077633394136E+000
-1.2179590E-001	1.002884120576912E+000
-1.2104385E-001	1.005443432376124E+000
-1.1991518E-001	1.007866150665060E+000
-1.1906153E-001	1.010453934474901E+000
-1.1821136E-001	1.012922491602318E+000
-1.1674770E-001	1.015953271615285E+000
-1.1575745E-001	1.019150733941502E+000
-1.1524115E-001	1.021461229909356E+000
-1.1424119E-001	1.023570391728921E+000
-1.1312478E-001	1.026415023015179E+000
-1.1206710E-001	1.028560003196752E+000
-1.1118867E-001	1.031042131146904E+000
-1.1020434E-001	1.033431016243476E+000
-1.0946600E-001	1.036001958780815E+000
-1.0823946E-001	1.038302646466978E+000
-1.0695630E-001	1.040783513798754E+000
-1.0621896E-001	1.043471683230664E+000
-1.0540713E-001	1.046047325812899E+000
-1.0471626E-001	1.048840010607684E+000
-1.0288622E-001	1.051171650213220E+000
-1.0241725E-001	1.053845142790108E+000
-1.0092298E-001	1.056145287636252E+000
-1.0020068E-001	1.058447757390912E+000
-9.9010028E-002	1.060878308037736E+000
-9.7931363E-002	1.063562012656968E+000
-9.6850559E-002	1.065888888306089E+000
-9.6181400E-002	1.068560513180323E+000
-9.4989568E-002	1.071064475785807E+000
-9.3777038E-002	1.073470105175617E+000
-9.2564099E-002	1.076222220126798E+000
-9.1914147E-002	1.078004710100308E+000
-9.1062188E-002	1.081202175783604E+000
-8.9995243E-002	1.083602174150721E+000
-8.9139313E-002	1.085313334095263E+000
-8.8300340E-002	1.087573012863338E+000
-8.6836234E-002	1.089767187695809E+000
-8.6402439E-002	1.092213486907658E+000
-8.4735848E-002	1.094528425498721E+000
-8.4019825E-002	1.096694076364788E+000
-8.3289348E-002	1.100121930343143E+000
-8.1865877E-002	1.103143064650119E+000
-8.0729090E-002	1.105401297272355E+000
-7.9746678E-002	1.107556379958520E+000
-7.8972675E-002	1.109930982606279E+000
-7.7927738E-002	1.112578548766948E+000
-7.6865956E-002	1.114601869707855E+000
-7.6005436E-002	1.116371907293800E+000
-7.5008653E-002	1.119276318699121E+000
-7.3951706E-002	1.121698481873160E+000
-7.2811857E-002	1.124648837441651E+000
-7.1905017E-002	1.126277225574961E+000
-7.0946418E-002	1.128572442441358E+000
-6.9915682E-002	1.131108535660642E+000
-6.8975523E-002	1.133277208268808E+000
-6.7860171E-002	1.135212337253272E+000
-6.7053884E-002	1.137596498484965E+000
-6.5973654E-002	1.138650684652722E+000
-6.4929418E-002	1.142028531680502E+000
-6.3771203E-002	1.144234577538793E+000
-6.2733456E-002	1.146633845270074E+000
-6.1934393E-002	1.148643496273849E+000
-6.1062116E-002	1.150743592254546E+000
-5.9807006E-002	1.153358717688269E+000
-5.8932364E-002	1.155283106008064E+000
-5.8040019E-002	1.157330355617944E+000
-5.7076037E-002	1.159686683642644E+000
-5.5960033E-002	1.161469322939714E+000
-5.4858413E-002	1.163678203224084E+000
-5.3834092E-002	1.166126689287246E+000
-5.2973069E-002	1.168275861138550E+000
-5.1825255E-002	1.170506512910286E+000
-5.1069859E-002	1.173704479165648E+000
-4.9956400E-002	1.175020583387880E+000
-4.8882660E-002	1.177142599785334E+000
-4.7583327E-002	1.179076703610246E+000
-4.6767280E-002	1.181184319986235E+000
-4.6114985E-002	1.183132650903548E+000
-4.4814855E-002	1.184989916505636E+000
-4.3879956E-002	1.186918652766177E+000
-4.2780552E-002	1.189684625715016E+000
-4.2012654E-002	1.191198431645280E+000
-4.0830951E-002	1.193024134617694E+000
-3.9920863E-002	1.195552242298918E+000
-3.8746100E-002	1.197187083600850E+000
-3.7974272E-002	1.199113642611998E+000
-3.6692500E-002	1.201136339593821E+000
-3.6036812E-002	1.203217382094375E+000
-3.4870435E-002	1.205497965365500E+000
-3.3881385E-002	1.207185384437997E+000
-3.3022273E-002	1.209421766576941E+000
-3.2005541E-002	1.211080441344380E+000
-3.0821448E-002	1.213090922683483E+000
-2.9929293E-002	1.215009672845319E+000
-2.8895121E-002	1.217309634166739E+000
-2.7870120E-002	1.219488580745676E+000
-2.6889442E-002	1.221659444818426E+000
-2.6009338E-002	1.224227908032914E+000
-2.4994519E-002	1.225898480939648E+000
-2.3668079E-002	1.227686422334262E+000
-2.2827212E-002	1.229260186078372E+000
-2.2008613E-002	1.231142770774937E+000
-2.0962281E-002	1.232832290773771E+000
-1.9910887E-002	1.234688896823814E+000
-1.8969972E-002	1.236854161061327E+000
-1.7831612E-002	1.238900077425773E+000
-1.6881071E-002	1.240430506705131E+000
-1.6058499E-002	1.242295532052919E+000
-1.4960255E-002	1.244415651454969E+000
-1.3838314E-002	1.245448079236123E+000
-1.2842208E-002	1.247346986735820E+000
-1.2031414E-002	1.249374771697655E+000
-1.0961229E-002	1.250454765779001E+000
-9.8669371E-003	1.252554628640318E+000
-8.9432616E-003	1.254765309117456E+000
-7.9129590E-003	1.256406436777779E+000
-6.8482910E-003	1.258144110513191E+000
-5.8512921E-003	1.259505605670036E+000
-4.8879068E-003	1.261688365786575E+000
-3.8466875E-003	1.263468496639420E+000
-2.8976297E-003	1.264983415879583E+000
-1.9905700E-003	1.267032168263057E+000
-1.0417270E-003	1.269626015866245E+000
1.0736727E-004	1.271170290531938E+000
1.1927041E-003	1.272829675476471E+000
2.1444259E-003	1.273971788723159E+000
3.0065114E-003	1.275942104006253E+000
3.8975899E-003	1.277489906657236E+000
4.9746288E-003	1.279353999567252E+000
6.0513867E-003	1.281392607561965E+000
6.1964830E-003	1.281156574092485E+000
7.0174173E-003	1.284400549801912E+000