EC-Lab ASCII FILE
Nb header lines : 63                          

Linear Sweep Voltammetry

Run on channel : 6 (SN 13765)
User : 
Electrode connection : standard
Potential control : Ewe
Ewe ctrl range : min = -2.50 V, max = 2.50 V
Ewe,I filtering : <None>
Safety Limits :
	Do not start on E overload
Channel : Floating
Acquisition started on : 07/17/2026 14:59:20.452
Technique started on : 07/17/2026 14:59:21.449
Loaded Setting File :  C:\Users\EEM-620\Desktop\Wade\abao\20260629\N719_0629-0-1_C06.mpr
Saved on :
	File : N719_0717-a-1_C06.mpr
	Directory : C:\Users\EEM-620\Desktop\Wade\abao\20260717\
	Host : 192.109.209.200
Device : VSP-300 (SN 0025)
Address : 192.109.209.129
EC-LAB for windows v11.62 (software)
Internet server v27.00 (firmware)
Command interpretor v12.02 (firmware)
Electrode material : Au/Pd
Initial state : 
Electrolyte : NaCl (0.2M)
Comments : Fe(CN)63-/Fe(CN)64- 5.10-3 M
Cable : ULC
Reference electrode : SCE Saturated Calomel Electrode (0.241 V)
Electrode surface area : 0.001 cm2
Characteristic mass : 0.001 g
Equivalent Weight : 0.000 g/eq.
Density : 0.000 g/cm3
Volume (V) : 0.001 cm3
Cycle Definition : Charge/Discharge alternance
tR (h:m:s)          0:00:5.0000         
dER/dt (mV/h)       0.0                 
dER (mV)            0                   
dtR (s)             0.0500              
dE/dt               10.000              
dE/dt unit          mV/s                
Ei (V)              -0.800              
vs.                 Ref                 
EL (V)              0.010               
vs.                 Ref                 
record              <I>                 
dI                  0.000               
unit dI             uA                  
tI (s)              0.0000              
step percent        50                  
N                   10                  
E range min (V)     -2.500              
E range max (V)     2.500               
I Range             Auto                
I Range min         Unset               
I Range max         Unset               
I Range init        Unset               
Bandwidth           8                   

Ewe/V	<I>/mA	
-8.3863521E-001	0.000000000000000E+000
-8.4302241E-001	0.000000000000000E+000
-8.4422135E-001	0.000000000000000E+000
-8.4286201E-001	0.000000000000000E+000
-8.4252220E-001	0.000000000000000E+000
-8.3849007E-001	0.000000000000000E+000
-8.4314072E-001	0.000000000000000E+000
-8.4075814E-001	0.000000000000000E+000
-8.4553105E-001	0.000000000000000E+000
-8.3826482E-001	0.000000000000000E+000
-8.4251839E-001	0.000000000000000E+000
-8.4434736E-001	0.000000000000000E+000
-8.4125835E-001	0.000000000000000E+000
-8.4723777E-001	0.000000000000000E+000
-8.4443903E-001	0.000000000000000E+000
-8.4193033E-001	0.000000000000000E+000
-8.3653891E-001	0.000000000000000E+000
-8.4300715E-001	0.000000000000000E+000
-8.4451151E-001	0.000000000000000E+000
-8.4189218E-001	0.000000000000000E+000
-8.3958596E-001	0.000000000000000E+000
-8.4528661E-001	0.000000000000000E+000
-8.4332788E-001	0.000000000000000E+000
-8.4420222E-001	0.000000000000000E+000
-8.4196091E-001	0.000000000000000E+000
-8.4386241E-001	0.000000000000000E+000
-8.3972722E-001	0.000000000000000E+000
-8.4114379E-001	0.000000000000000E+000
-8.4443134E-001	0.000000000000000E+000
-8.4183109E-001	0.000000000000000E+000
-8.4135383E-001	0.000000000000000E+000
-8.4128892E-001	0.000000000000000E+000
-8.3873445E-001	0.000000000000000E+000
-8.4248018E-001	0.000000000000000E+000
-8.4348059E-001	0.000000000000000E+000
-8.4344625E-001	0.000000000000000E+000
-8.4311783E-001	0.000000000000000E+000
-8.4324771E-001	0.000000000000000E+000
-8.4115905E-001	0.000000000000000E+000
-8.4228545E-001	0.000000000000000E+000
-8.4103686E-001	0.000000000000000E+000
-8.4315979E-001	0.000000000000000E+000
-8.4146070E-001	0.000000000000000E+000
-8.4324002E-001	0.000000000000000E+000
-8.4343094E-001	0.000000000000000E+000
-8.4268641E-001	0.000000000000000E+000
-8.4076577E-001	0.000000000000000E+000
-8.4299564E-001	0.000000000000000E+000
-8.4294605E-001	0.000000000000000E+000
-8.4458405E-001	0.000000000000000E+000
-8.4194565E-001	0.000000000000000E+000
-8.4135765E-001	0.000000000000000E+000
-8.4221673E-001	0.000000000000000E+000
-8.4348822E-001	0.000000000000000E+000
-8.4128124E-001	0.000000000000000E+000
-8.4140724E-001	0.000000000000000E+000
-8.4059393E-001	0.000000000000000E+000
-8.4322476E-001	0.000000000000000E+000
-8.3782184E-001	0.000000000000000E+000
-8.4167451E-001	0.000000000000000E+000
-8.4168220E-001	0.000000000000000E+000
-8.4882236E-001	0.000000000000000E+000
-8.4824198E-001	0.000000000000000E+000
-7.9093319E-001	6.706917431691417E-002
-7.8886062E-001	6.676260231724784E-002
-7.8740937E-001	6.696924731928733E-002
-7.8723431E-001	6.754454853082159E-002
-7.8579485E-001	6.830620020852965E-002
-7.8454745E-001	6.906783498858132E-002
-7.8414875E-001	6.980363057868511E-002
-7.8447145E-001	7.080346950398830E-002
-7.8228915E-001	7.172464740600604E-002
-7.8078842E-001	7.271981806848138E-002
-7.8038514E-001	7.363709136498769E-002
-7.7942038E-001	7.451912985804188E-002
-7.7870160E-001	7.522215835554336E-002
-7.7644843E-001	7.623758363640953E-002
-7.7592027E-001	7.733094036855087E-002
-7.7501684E-001	7.826107897548040E-002
-7.7433652E-001	7.928472227865346E-002
-7.7327406E-001	8.017807711761882E-002
-7.7229148E-001	8.121956916767437E-002
-7.7125621E-001	8.207350832203175E-002
-7.7000529E-001	8.301415093271580E-002
-7.6885396E-001	8.412656244925348E-002
-7.6873821E-001	8.509781385806448E-002
-7.6746500E-001	8.604910146517292E-002
-7.6677042E-001	8.701967014241285E-002
-7.6565528E-001	8.808457062372743E-002
-7.6430285E-001	8.921629840875211E-002
-7.6302445E-001	9.007426756606596E-002
-7.6274085E-001	9.097653967155894E-002
-7.6080978E-001	9.187153646356183E-002
-7.5976640E-001	9.304753477961070E-002
-7.5932598E-001	9.398936250445633E-002
-7.5883895E-001	9.487776621244859E-002
-7.5803578E-001	9.581895445956379E-002
-7.5599700E-001	9.652460904807958E-002
-7.5517511E-001	9.755813614982745E-002
-7.5403833E-001	9.875303106727396E-002
-7.5355494E-001	9.977999681732608E-002
-7.5132555E-001	1.007038044087862E-001
-7.5077254E-001	1.016256842348311E-001
-7.4983615E-001	1.025991278781033E-001
-7.4886513E-001	1.036932375109578E-001
-7.4844581E-001	1.046589487378515E-001
-7.4738741E-001	1.056915406068715E-001
-7.4684894E-001	1.068327092496610E-001
-7.4474192E-001	1.076427740206769E-001
-7.4513471E-001	1.087169988874208E-001
-7.4325293E-001	1.100725694608795E-001
-7.4218351E-001	1.110512549926526E-001
-7.4185479E-001	1.123088504946617E-001
-7.4029905E-001	1.134511002477399E-001
-7.3911619E-001	1.149030618396573E-001
-7.3757374E-001	1.162244965908708E-001
-7.3721766E-001	1.170910700504482E-001
-7.3636472E-001	1.183689501722922E-001
-7.3539954E-001	1.194548084814516E-001
-7.3337555E-001	1.205129164991559E-001
-7.3341203E-001	1.216618038231028E-001
-7.3240131E-001	1.232066000466821E-001
-7.3087537E-001	1.241950875448392E-001
-7.2947878E-001	1.252380473780687E-001
-7.2917914E-001	1.264618526695775E-001
-7.2793603E-001	1.278210706553833E-001
-7.2692460E-001	1.287429499163951E-001
-7.2659087E-001	1.294666257410966E-001
-7.2584587E-001	1.308547011456613E-001
-7.2432160E-001	1.315920030767166E-001
-7.2310585E-001	1.331711990151783E-001
-7.2190207E-001	1.341925960172099E-001
-7.2162539E-001	1.354315598943721E-001
-7.2054303E-001	1.365292690246904E-001
-7.1901709E-001	1.376067721284928E-001
-7.1846223E-001	1.388456030679799E-001
-7.1703535E-001	1.399491403056730E-001
-7.1605349E-001	1.410014181121910E-001
-7.1514535E-001	1.419143082091107E-001
-7.1390271E-001	1.429931941685658E-001
-7.1342164E-001	1.438923359986535E-001
-7.1239960E-001	1.451176830445755E-001
-7.1076709E-001	1.458535478967758E-001
-7.1039140E-001	1.471427257034796E-001
-7.0915800E-001	1.480864319731614E-001
-7.0785892E-001	1.492773251849466E-001
-7.0701176E-001	1.500910568154525E-001
-7.0590878E-001	1.512375218210984E-001
-7.0516795E-001	1.520766337333184E-001
-7.0399749E-001	1.534961429941983E-001
-7.0315498E-001	1.547481145503591E-001
-7.0214409E-001	1.555628228104782E-001
-7.0113540E-001	1.567491596495665E-001
-7.0008153E-001	1.577243041277127E-001
-6.9848841E-001	1.588913020160458E-001
-6.9815820E-001	1.600103211514271E-001
-6.9728494E-001	1.611026182977682E-001
-6.9589943E-001	1.619834270224803E-001
-6.9527233E-001	1.636391239114090E-001
-6.9370985E-001	1.644585693979432E-001
-6.9295698E-001	1.654613888132626E-001
-6.9232720E-001	1.666530814010226E-001
-6.9104028E-001	1.677201730199154E-001
-6.9069487E-001	1.689912117327808E-001
-6.8905401E-001	1.697954236660561E-001
-6.8808359E-001	1.711022604981225E-001
-6.8749774E-001	1.728287627749165E-001
-6.8682569E-001	1.740281369916543E-001
-6.8548888E-001	1.749877065282179E-001
-6.8386304E-001	1.757752088130840E-001
-6.8264365E-001	1.771522266790266E-001
-6.8231165E-001	1.782448960951069E-001
-6.8091846E-001	1.789346972661923E-001
-6.8049389E-001	1.796413699199477E-001
-6.7895746E-001	1.801149336862622E-001
-6.7803752E-001	1.814197914608807E-001
-6.7708796E-001	1.825304427874026E-001
-6.7576236E-001	1.841885774844771E-001
-6.7491263E-001	1.852391597847847E-001
-6.7404187E-001	1.866376323073551E-001
-6.7327040E-001	1.876670802982763E-001
-6.7185962E-001	1.889318718609436E-001
-6.7172223E-001	1.898499932485036E-001
-6.6995364E-001	1.912852092461346E-001
-6.6888994E-001	1.918906927177746E-001
-6.6850001E-001	1.932709287610597E-001
-6.6719574E-001	1.945254747770830E-001
-6.6648835E-001	1.956884880653686E-001
-6.6537601E-001	1.968550287463047E-001
-6.6424954E-001	1.979874443261744E-001
-6.6356862E-001	1.989695370818172E-001
-6.6175050E-001	2.003428696965166E-001
-6.6120136E-001	2.012398689865297E-001
-6.5980577E-001	2.023546059995343E-001
-6.5830851E-001	2.038627578313419E-001
-6.5753365E-001	2.046310209013784E-001
-6.5740383E-001	2.055579778496863E-001
-6.5607733E-001	2.068200773861597E-001
-6.5542322E-001	2.079331458856664E-001
-6.5443045E-001	2.091819111395754E-001
-6.5288681E-001	2.097859577243373E-001
-6.5233082E-001	2.114602480842568E-001
-6.5124327E-001	2.126440867022783E-001
-6.5008301E-001	2.133349469948221E-001
-6.4941591E-001	2.146794239610990E-001
-6.4800930E-001	2.157054476577924E-001
-6.4660662E-001	2.170693156895813E-001
-6.4597249E-001	2.178307127690413E-001
-6.4481193E-001	2.187344156670583E-001
-6.4417136E-001	2.199156034254908E-001
-6.4344949E-001	2.213937155902395E-001
-6.4175731E-001	2.224241518850036E-001
-6.4129406E-001	2.232628709257205E-001
-6.4059466E-001	2.243439469279522E-001
-6.3890207E-001	2.256626391957770E-001
-6.3862973E-001	2.267511093092183E-001
-6.3695300E-001	2.276805710668368E-001
-6.3640618E-001	2.290403606589058E-001
-6.3510394E-001	2.298992678040155E-001
-6.3426441E-001	2.312480565060406E-001
-6.3319522E-001	2.321685476366566E-001
-6.3211358E-001	2.329087468829987E-001
-6.3110173E-001	2.336265953195866E-001
-6.2954688E-001	2.350983973937475E-001
-6.2937337E-001	2.359427759009933E-001
-6.2856448E-001	2.369075916356538E-001
-6.2713373E-001	2.382092735281698E-001
-6.2616807E-001	2.395715879414373E-001
-6.2546676E-001	2.407213478919088E-001
-6.2380904E-001	2.425034274864535E-001
-6.2329268E-001	2.430770483074909E-001
-6.2191093E-001	2.443773748335126E-001
-6.2160420E-001	2.452135746953679E-001
-6.2018311E-001	2.460271301414634E-001
-6.1917686E-001	2.471409470739747E-001
-6.1837894E-001	2.482359796348543E-001
-6.1679417E-001	2.493894578670059E-001
-6.1684597E-001	2.501083067445844E-001
-6.1582690E-001	2.514672083090304E-001
-6.1410326E-001	2.528145674783602E-001
-6.1257517E-001	2.540148409359437E-001
-6.1167622E-001	2.550372480311328E-001
-6.1091232E-001	2.559088212513538E-001
-6.1061645E-001	2.570126396431411E-001
-6.0931468E-001	2.577164681553006E-001
-6.0806286E-001	2.588758385153840E-001
-6.0731065E-001	2.596202989074357E-001
-6.0583663E-001	2.612874011740374E-001
-6.0490698E-001	2.621217460750973E-001
-6.0392320E-001	2.626892994330432E-001
-6.0323578E-001	2.637536732252004E-001
-6.0218543E-001	2.648887683258008E-001
-6.0084122E-001	2.661606298621595E-001
-6.0000908E-001	2.674202569539577E-001
-5.9991646E-001	2.681273238181520E-001
-5.9796262E-001	2.689827961019350E-001
-5.9760916E-001	2.703518548842150E-001
-5.9606975E-001	2.712968987654198E-001
-5.9461766E-001	2.715495602518709E-001
-5.9431970E-001	2.728117740609577E-001
-5.9357876E-001	2.738215689788821E-001
-5.9221649E-001	2.745483162935569E-001
-5.9105575E-001	2.751159111589745E-001
-5.9059054E-001	2.762173118621667E-001
-5.8956164E-001	2.771373727084692E-001
-5.8851957E-001	2.783726716276111E-001
-5.8672553E-001	2.792455061097385E-001
-5.8620477E-001	2.803501201502757E-001
-5.8540171E-001	2.816063182221524E-001
-5.8384359E-001	2.823035366212312E-001
-5.8296645E-001	2.834898271161501E-001
-5.8195925E-001	2.846125904125754E-001
-5.8193952E-001	2.858774704565077E-001
-5.7988000E-001	2.865034425286241E-001
-5.7955587E-001	2.876507080056598E-001
-5.7825899E-001	2.886251750408193E-001
-5.7729739E-001	2.894289522190328E-001
-5.7588649E-001	2.905147322970962E-001
-5.7569784E-001	2.915202582487764E-001
-5.7430130E-001	2.925495576734352E-001
-5.7317084E-001	2.933876263322670E-001
-5.7268155E-001	2.942457231234989E-001
-5.7138497E-001	2.947955443696292E-001
-5.6996936E-001	2.959025547092113E-001
-5.6893021E-001	2.970253563037641E-001
-5.6797481E-001	2.979658925905833E-001
-5.6697935E-001	2.986513003936007E-001
-5.6639242E-001	2.999959883314591E-001
-5.6582445E-001	3.009960893541574E-001
-5.6439751E-001	3.020068622662242E-001
-5.6342375E-001	3.027081838636492E-001
-5.6212217E-001	3.033323295207483E-001
-5.6144285E-001	3.039347023517474E-001
-5.6051719E-001	3.051224634465247E-001
-5.5908853E-001	3.060526851978574E-001
-5.5787945E-001	3.071739972522561E-001
-5.5707502E-001	3.072684369981298E-001
-5.5583131E-001	3.082741807791166E-001
-5.5614382E-001	3.094479802099093E-001
-5.5358446E-001	3.101527985461335E-001
-5.5259538E-001	3.110519564878569E-001
-5.5175656E-001	3.114026806972638E-001
-5.5145049E-001	3.121859694796574E-001
-5.5047423E-001	3.135108404988940E-001
-5.4883581E-001	3.141751546343716E-001
-5.4798049E-001	3.149602432493803E-001
-5.4724532E-001	3.156866086751817E-001
-5.4598457E-001	3.166975737721835E-001
-5.4554528E-001	3.178051210663950E-001
-5.4361874E-001	3.182951443755146E-001
-5.4308122E-001	3.191825432564922E-001
-5.4189938E-001	3.204560505785934E-001
-5.4150915E-001	3.208470079288996E-001
-5.4005802E-001	3.213658923007271E-001
-5.3962338E-001	3.226477808761920E-001
-5.3858751E-001	3.233199471400856E-001
-5.3745365E-001	3.239682400254198E-001
-5.3656411E-001	3.247528634852990E-001
-5.3543425E-001	3.255986906933019E-001
-5.3381568E-001	3.260010426381106E-001
-5.3284174E-001	3.265214247821383E-001
-5.3215706E-001	3.278496296110536E-001
-5.3138572E-001	3.284793782106036E-001
-5.3045791E-001	3.289041590221498E-001
-5.2878106E-001	3.295632853621138E-001
-5.2731478E-001	3.302625360523548E-001
-5.2691221E-001	3.315669841098567E-001
-5.2666020E-001	3.318905260206930E-001
-5.2486777E-001	3.327491257082025E-001
-5.2418405E-001	3.331592172315272E-001
-5.2300298E-001	3.336116467361094E-001
-5.2242786E-001	3.347811033029213E-001
-5.2129591E-001	3.353260975607011E-001
-5.2038753E-001	3.359371995967304E-001
-5.1916170E-001	3.365121504122892E-001
-5.1806986E-001	3.371218476030569E-001
-5.1763833E-001	3.380014917692309E-001
-5.1637542E-001	3.382989776976131E-001
-5.1563466E-001	3.390450104381202E-001
-5.1381063E-001	3.394536940285151E-001
-5.1359230E-001	3.402768577345547E-001
-5.1210213E-001	3.407544574044925E-001
-5.1118100E-001	3.411766623740937E-001
-5.1002347E-001	3.418896119972628E-001
-5.1000142E-001	3.427275785555453E-001
-5.0839221E-001	3.433130730135545E-001
-5.0673234E-001	3.436050213252502E-001
-5.0569987E-001	3.445252207723220E-001
-5.0513309E-001	3.446114151566118E-001
-5.0446278E-001	3.453066128616546E-001
-5.0390285E-001	3.463771384982439E-001
-5.0266016E-001	3.467684620646398E-001
-5.0152117E-001	3.471805420876655E-001
-4.9991742E-001	3.479187203867185E-001
-4.9904925E-001	3.483959664763123E-001
-4.9813733E-001	3.487277199272771E-001
-4.9710128E-001	3.497170312679128E-001
-4.9617511E-001	3.501468497776887E-001
-4.9556530E-001	3.509021465563111E-001
-4.9435160E-001	3.513257895943198E-001
-4.9321747E-001	3.518307899228406E-001
-4.9190435E-001	3.525501674109135E-001
-4.9136516E-001	3.528623554717623E-001
-4.9065199E-001	3.536280383252426E-001
-4.8888174E-001	3.540119385796903E-001
-4.8709249E-001	3.546159965227602E-001
-4.8698643E-001	3.552615836055750E-001
-4.8595676E-001	3.559542234156385E-001
-4.8546356E-001	3.565273400465099E-001
-4.8402551E-001	3.569536101831865E-001
-4.8221868E-001	3.574941268663965E-001
-4.8233062E-001	3.579480897428242E-001
-4.8190004E-001	3.582455983247455E-001
-4.7978175E-001	3.588858696627586E-001
-4.7923252E-001	3.593410556722007E-001
-4.7794583E-001	3.601804892390179E-001
-4.7701451E-001	3.606863205700552E-001
-4.7603089E-001	3.609236820980364E-001
-4.7520339E-001	3.615723786704437E-001
-4.7485316E-001	3.619794189171111E-001
-4.7343293E-001	3.624719535173089E-001
-4.7227991E-001	3.631372134148358E-001
-4.7163984E-001	3.638072122509275E-001
-4.6967554E-001	3.641048320396649E-001
-4.6924216E-001	3.646664123384333E-001
-4.6788901E-001	3.651391959369708E-001
-4.6721378E-001	3.656913496001994E-001
-4.6583268E-001	3.658900553669520E-001
-4.6495968E-001	3.665989757756929E-001
-4.6384579E-001	3.668041557230752E-001
-4.6252346E-001	3.670292292480095E-001
-4.6227142E-001	3.677470792360857E-001
-4.6162605E-001	3.680912458232708E-001
-4.6010733E-001	3.689726463829466E-001
-4.5847014E-001	3.691495322725844E-001
-4.5828763E-001	3.695385252226533E-001
-4.5733929E-001	3.698998425776752E-001
-4.5619312E-001	3.707000049245037E-001
-4.5496699E-001	3.707844110847924E-001
-4.5413172E-001	3.715347206151058E-001
-4.5276922E-001	3.715788581023496E-001
-4.5202613E-001	3.721531528841551E-001
-4.5085582E-001	3.725765767610714E-001
-4.5020381E-001	3.729216036437615E-001
-4.4974592E-001	3.735409099263723E-001
-4.4791466E-001	3.738650476077110E-001
-4.4729427E-001	3.745817661698201E-001
-4.4630799E-001	3.748256930460530E-001
-4.4502401E-001	3.751942840646267E-001
-4.4472983E-001	3.756446327539411E-001
-4.4315967E-001	3.761014625844019E-001
-4.4192547E-001	3.766523813828826E-001
-4.4092336E-001	3.768291952817329E-001
-4.4028571E-001	3.771599088278101E-001
-4.3938178E-001	3.769195189282328E-001
-4.3835640E-001	3.764541935934522E-001
-4.3726373E-001	3.771674208067086E-001
-4.3635890E-001	3.775233181359940E-001
-4.3568212E-001	3.776378785777412E-001
-4.3415523E-001	3.778888383811267E-001
-4.3367454E-001	3.784736621198914E-001
-4.3261158E-001	3.790466813370581E-001
-4.3135667E-001	3.793750520864583E-001
-4.2936444E-001	3.795506798317358E-001
-4.2921585E-001	3.802514300440198E-001
-4.2829093E-001	3.803878845735049E-001
-4.2689115E-001	3.807392324562420E-001
-4.2610458E-001	3.813124807137580E-001
-4.2527249E-001	3.817071708052167E-001
-4.2434987E-001	3.817780439017540E-001
-4.2335373E-001	3.821803209268388E-001
-4.2244938E-001	3.828933874894802E-001
-4.2088640E-001	3.832312329430820E-001
-4.2058969E-001	3.834164131570756E-001
-4.1953593E-001	3.840581364677771E-001
-4.1887018E-001	3.842418320408019E-001
-4.1707152E-001	3.847886578490338E-001
-4.1660273E-001	3.849831823538549E-001
-4.1514820E-001	3.856510643467868E-001
-4.1441250E-001	3.856806243261461E-001
-4.1335109E-001	3.860353266958290E-001
-4.1252846E-001	3.864498340559237E-001
-4.1081885E-001	3.867066173204381E-001
-4.1053572E-001	3.871414561031603E-001
-4.0919462E-001	3.877709032622736E-001
-4.0825102E-001	3.878986053444740E-001
-4.0725088E-001	3.882447349390503E-001
-4.0602100E-001	3.887096773833036E-001
-4.0488210E-001	3.891115789626205E-001
-4.0374422E-001	3.895424911407407E-001
-4.0344214E-001	3.895875731897007E-001
-4.0245026E-001	3.902675961391715E-001
-4.0176269E-001	3.904058509333819E-001
-4.0075898E-001	3.909307226237679E-001
-3.9904559E-001	3.913187868203281E-001
-3.9851719E-001	3.912565102455797E-001
-3.9735389E-001	3.917817371672232E-001
-3.9572579E-001	3.921471420951494E-001
-3.9539006E-001	3.925371054835898E-001
-3.9417747E-001	3.928492455327355E-001
-3.9236760E-001	3.931865736290274E-001
-3.9237970E-001	3.935311341451300E-001
-3.9131269E-001	3.937962190814250E-001
-3.9018884E-001	3.941638029559886E-001
-3.8903129E-001	3.945907510965903E-001
-3.8825932E-001	3.949474991747625E-001
-3.8717723E-001	3.951411011318351E-001
-3.8621044E-001	3.949324215567314E-001
-3.8570592E-001	3.952471346904829E-001
-3.8444296E-001	3.957270815002696E-001
-3.8284230E-001	3.958579143000343E-001
-3.8170946E-001	3.965053189269909E-001
-3.8177669E-001	3.962922515692560E-001
-3.8033417E-001	3.968809724334683E-001
-3.7896624E-001	3.971644460603043E-001
-3.7847474E-001	3.975221213229272E-001
-3.7775022E-001	3.978478959137650E-001
-3.7604252E-001	3.982696801562002E-001
-3.7533683E-001	3.983033294244340E-001
-3.7391359E-001	3.986798648343033E-001
-3.7371671E-001	3.991221671027168E-001
-3.7218904E-001	3.992258273160081E-001
-3.7125710E-001	3.994206397069817E-001
-3.6957940E-001	3.998640579068011E-001
-3.6936599E-001	4.003524968529186E-001
-3.6852872E-001	4.003524625052997E-001
-3.6739856E-001	4.008023955479816E-001
-3.6558583E-001	4.009913710554365E-001
-3.6578912E-001	4.014731651792930E-001
-3.6428532E-001	4.019787201864835E-001
-3.6264706E-001	4.023295153568274E-001
-3.6281234E-001	4.023585472669859E-001
-3.6124212E-001	4.025939204539366E-001
-3.5971865E-001	4.029146000329007E-001
-3.5932472E-001	4.031419588459855E-001
-3.5824585E-001	4.034328043971520E-001
-3.5728705E-001	4.038862471503268E-001
-3.5584390E-001	4.040271644652995E-001
-3.5466284E-001	4.043336393289545E-001
-3.5461298E-001	4.046638920489296E-001
-3.5362887E-001	4.051336305284940E-001
-3.5241961E-001	4.050852787619563E-001
-3.5109609E-001	4.054715727904341E-001
-3.4999263E-001	4.057346247826468E-001
-3.4950599E-001	4.059523421965086E-001
-3.4813714E-001	4.063949711206893E-001
-3.4695208E-001	4.067194569454422E-001
-3.4641805E-001	4.070333737742029E-001
-3.4482074E-001	4.072781146538476E-001
-3.4472692E-001	4.075837238942128E-001
-3.4330231E-001	4.079030232021124E-001
-3.4240124E-001	4.081607456146577E-001
-3.4086809E-001	4.082757392669443E-001
-3.3994773E-001	4.085517622254509E-001
-3.3903855E-001	4.088907051417587E-001
-3.3770448E-001	4.092706607113659E-001
-3.3720833E-001	4.095674265452010E-001
-3.3600733E-001	4.097899686921380E-001
-3.3501574E-001	4.101408461315783E-001
-3.3434522E-001	4.103197207743374E-001
-3.3316809E-001	4.104412256079213E-001
-3.3254659E-001	4.108495821969393E-001
-3.3116671E-001	4.110149023709475E-001
-3.2974529E-001	4.113197213570921E-001
-3.2933542E-001	4.117054314938959E-001
-3.2854378E-001	4.118954108131154E-001
-3.2722509E-001	4.120963703572125E-001
-3.2600757E-001	4.123885147273523E-001
-3.2502076E-001	4.124132232671531E-001
-3.2433346E-001	4.127042991425647E-001
-3.2299405E-001	4.131117053329962E-001
-3.2147428E-001	4.134689254491373E-001
-3.2104716E-001	4.138141760809546E-001
-3.1966391E-001	4.139594426033678E-001
-3.1919309E-001	4.141411934796952E-001
-3.1847131E-001	4.144266643733872E-001
-3.1736657E-001	4.147979737845819E-001
-3.1622559E-001	4.151609576398057E-001
-3.1581843E-001	4.152812743904422E-001
-3.1481767E-001	4.155840276292084E-001
-3.1291169E-001	4.156904837628783E-001
-3.1295919E-001	4.160634037107251E-001
-3.1098670E-001	4.163937955155781E-001
-3.1074864E-001	4.167781314916077E-001
-3.0866739E-001	4.166214864149138E-001
-3.0872494E-001	4.171092933025395E-001
-3.0718401E-001	4.172066250746997E-001
-3.0635121E-001	4.176632622601808E-001
-3.0493659E-001	4.180459773095766E-001
-3.0408973E-001	4.181928807110697E-001
-3.0322066E-001	4.185328895433074E-001
-3.0256736E-001	4.185397613414606E-001
-3.0099520E-001	4.189306990829866E-001
-3.0065727E-001	4.191212071174837E-001
-2.9914486E-001	4.194420085891224E-001
-2.9793340E-001	4.195815744913292E-001
-2.9756352E-001	4.198859899979768E-001
-2.9590222E-001	4.201625173014651E-001
-2.9530999E-001	4.202812814188235E-001
-2.9412046E-001	4.206969739266769E-001
-2.9306650E-001	4.207855559609541E-001
-2.9232177E-001	4.210108924243166E-001
-2.9137743E-001	4.213918651457202E-001
-2.8979552E-001	4.215254529758767E-001
-2.8950003E-001	4.216953930617500E-001
-2.8841320E-001	4.220545803333540E-001
-2.8690550E-001	4.223867865900175E-001
-2.8661597E-001	4.226597917990560E-001
-2.8525558E-001	4.227459948305956E-001
-2.8396583E-001	4.229194478442264E-001
-2.8339237E-001	4.233234652027740E-001
-2.8274316E-001	4.234215570958653E-001
-2.8075591E-001	4.236809673408670E-001
-2.7980199E-001	4.240970072250496E-001
-2.7935016E-001	4.243643401121666E-001
-2.7777132E-001	4.245708764841165E-001
-2.7767116E-001	4.246719675479786E-001
-2.7568969E-001	4.250800058383639E-001
-2.7486324E-001	4.252126085123535E-001
-2.7441016E-001	4.255198458287968E-001
-2.7363840E-001	4.258131197205284E-001
-2.7227226E-001	4.258329163302363E-001
-2.7131307E-001	4.259830015814963E-001
-2.7096644E-001	4.261790775452494E-001
-2.6943502E-001	4.249413150274073E-001
-2.6822090E-001	4.240505160005008E-001
-2.6726758E-001	4.244929944613443E-001
-2.6658636E-001	4.247873847090471E-001
-2.6544967E-001	4.249470231847632E-001
-2.6435655E-001	4.253369024782270E-001
-2.6378518E-001	4.254885179963646E-001
-2.6214346E-001	4.258727851427260E-001
-2.6141161E-001	4.259084592124918E-001
-2.6078650E-001	4.262542204928366E-001
-2.5865313E-001	4.263919572587371E-001
-2.5829116E-001	4.266828755383640E-001
-2.5719386E-001	4.269588096412242E-001
-2.5586829E-001	4.269866530128112E-001
-2.5522196E-001	4.272935645247351E-001
-2.5384927E-001	4.276960196180474E-001
-2.5371516E-001	4.279383554088874E-001
-2.5246701E-001	4.280351724313050E-001
-2.5064847E-001	4.283520629698483E-001
-2.5091934E-001	4.284899930849129E-001
-2.4984890E-001	4.286500599730960E-001
-2.4792178E-001	4.289732425025230E-001
-2.4738467E-001	4.292120968026161E-001
-2.4607819E-001	4.294930309321172E-001
-2.4544138E-001	4.296596461424134E-001
-2.4435784E-001	4.299601208467774E-001
-2.4283476E-001	4.300469805107099E-001
-2.4206388E-001	4.302102567421078E-001
-2.4164908E-001	4.306265322429548E-001
-2.4020268E-001	4.306585294780909E-001
-2.3959345E-001	4.310914411864903E-001
-2.3817581E-001	4.311716758005861E-001
-2.3753920E-001	4.312601851092435E-001
-2.3554690E-001	4.315302426478387E-001
-2.3527744E-001	4.317951915377254E-001
-2.3455329E-001	4.320066786474657E-001
-2.3323034E-001	4.322138491695493E-001
-2.3277481E-001	4.323601555079222E-001
-2.3095858E-001	4.326582842127052E-001
-2.3050235E-001	4.328691816455050E-001
-2.2925922E-001	4.329607677128573E-001
-2.2839203E-001	4.332673491703138E-001
-2.2716409E-001	4.334810575398365E-001
-2.2642225E-001	4.336948558274250E-001
-2.2540869E-001	4.340201474174306E-001
-2.2459374E-001	4.339323018348271E-001
-2.2350550E-001	4.342251353793682E-001
-2.2243401E-001	4.344391016358573E-001
-2.2120987E-001	4.348044508304518E-001
-2.1987069E-001	4.349641092811467E-001
-2.1871775E-001	4.351469383243352E-001
-2.1854341E-001	4.353432934041368E-001
-2.1730651E-001	4.355000612084519E-001
-2.1642421E-001	4.357828732463562E-001
-2.1535535E-001	4.359122751349656E-001
-2.1409276E-001	4.362953272820633E-001
-2.1339171E-001	4.363885432611498E-001
-2.1223007E-001	4.367086062966670E-001
-2.1190041E-001	4.367176909689543E-001
-2.1006814E-001	4.370165960644092E-001
-2.0922379E-001	4.373452606162527E-001
-2.0812838E-001	4.373309842690283E-001
-2.0767719E-001	4.375730249340881E-001
-2.0611909E-001	4.378727437169481E-001
-2.0529217E-001	4.378871483593203E-001
-2.0444351E-001	4.381269905716190E-001
-2.0328571E-001	4.382749837995683E-001
-2.0212580E-001	4.384463656447082E-001
-2.0113432E-001	4.386262260377403E-001
-2.0027520E-001	4.389752235125597E-001
-1.9955914E-001	4.391914113244617E-001
-1.9793564E-001	4.391978950826101E-001
-1.9728611E-001	4.395780798599667E-001
-1.9636200E-001	4.395959859447016E-001
-1.9459271E-001	4.401332237930218E-001
-1.9451727E-001	4.400013583565849E-001
-1.9372235E-001	4.402112653823922E-001
-1.9338275E-001	4.404801622860983E-001
-1.9119400E-001	4.407674543936402E-001
-1.9025874E-001	4.409123694317219E-001
-1.8941598E-001	4.410971614221717E-001
-1.8842167E-001	4.412950683678041E-001
-1.8799938E-001	4.414525510812251E-001
-1.8595830E-001	4.417833575495989E-001
-1.8541847E-001	4.418742986966102E-001
-1.8442270E-001	4.420031084230671E-001
-1.8305236E-001	4.423517971816979E-001
-1.8224874E-001	4.424579560808137E-001
-1.8101975E-001	4.424916825222753E-001
-1.8057452E-001	4.427887651244333E-001
-1.7915219E-001	4.428689721971750E-001
-1.7852025E-001	4.433216038677443E-001
-1.7742576E-001	4.429947417284112E-001
-1.7643082E-001	4.434715150683020E-001
-1.7504391E-001	4.436069048113271E-001
-1.7408982E-001	4.438515136472390E-001
-1.7366657E-001	4.438482066271483E-001
-1.7275505E-001	4.442715169516980E-001
-1.7114034E-001	4.444310633559259E-001
-1.7052454E-001	4.444657731111423E-001
-1.6903073E-001	4.446968306545873E-001
-1.6811796E-001	4.447024059864351E-001
-1.6687509E-001	4.451752765173156E-001
-1.6574746E-001	4.452199690401777E-001
-1.6561526E-001	4.455192723759898E-001
-1.6436329E-001	4.455519791830476E-001
-1.6394918E-001	4.459725839942701E-001
-1.6258417E-001	4.459500776396848E-001
-1.6129105E-001	4.461148992456776E-001
-1.5985066E-001	4.462327177750467E-001
-1.5965831E-001	4.464182112779875E-001
-1.5823728E-001	4.465471235690288E-001
-1.5798135E-001	4.467855456565744E-001
-1.5618749E-001	4.467898360281084E-001
-1.5503713E-001	4.468797318921638E-001
-1.5466972E-001	4.470935583252604E-001
-1.5356557E-001	4.473112189659372E-001
-1.5229739E-001	4.475390815143108E-001
-1.5092292E-001	4.476429266786122E-001
-1.5067853E-001	4.478329926453251E-001
-1.4987464E-001	4.479878568752311E-001
-1.4811476E-001	4.481157996450320E-001
-1.4677179E-001	4.483589794210832E-001
-1.4623742E-001	4.484935368079273E-001
-1.4512694E-001	4.486075048507365E-001
-1.4436434E-001	4.487705100327721E-001
-1.4354169E-001	4.487637159440752E-001
-1.4194292E-001	4.492090231980423E-001
-1.4123954E-001	4.490023754337003E-001
-1.4094253E-001	4.495306442043319E-001
-1.3915195E-001	4.492411752127943E-001
-1.3823318E-001	4.496857471037696E-001
-1.3629311E-001	4.497644394912141E-001
-1.3625620E-001	4.500130926845252E-001
-1.3522772E-001	4.500810334856444E-001
-1.3434599E-001	4.502402733735460E-001
-1.3323402E-001	4.503471364301674E-001
-1.3252592E-001	4.504912455748515E-001
-1.3141228E-001	4.506251257326879E-001
-1.3063483E-001	4.507950062139185E-001
-1.2967367E-001	4.510029985114983E-001
-1.2811773E-001	4.512803774602974E-001
-1.2706779E-001	4.512488838527019E-001
-1.2642156E-001	4.516441046639761E-001
-1.2505440E-001	4.517166419989538E-001
-1.2432498E-001	4.517946526703271E-001
-1.2322182E-001	4.520233729509267E-001
-1.2173884E-001	4.521155578118821E-001
-1.2110709E-001	4.523580233388191E-001
-1.2083411E-001	4.523647771803296E-001
-1.1880512E-001	4.525953666479499E-001
-1.1840492E-001	4.527298958586643E-001
-1.1798269E-001	4.528534816647012E-001
-1.1651726E-001	4.530410087689312E-001
-1.1557610E-001	4.532211741639514E-001
-1.1482263E-001	4.533111086736121E-001
-1.1293996E-001	4.534998454122521E-001
-1.1270265E-001	4.535919027747948E-001
-1.1070459E-001	4.538951699656471E-001
-1.1007024E-001	4.540488154256643E-001
-1.0928866E-001	4.540583082923195E-001
-1.0844695E-001	4.541273148799392E-001
-1.0707802E-001	4.544334992358048E-001
-1.0618014E-001	4.546472589588815E-001
-1.0540525E-001	4.547333593859726E-001
-1.0432953E-001	4.548618983081436E-001
-1.0324959E-001	4.550955158278898E-001
-1.0174351E-001	4.552100117213040E-001
-1.0130566E-001	4.553706431416460E-001
-1.0019305E-001	4.553008768707514E-001
-9.9455416E-002	4.555502516336541E-001
-9.8545246E-002	4.557361032261917E-001
-9.6454315E-002	4.559213918530247E-001
-9.6144602E-002	4.560271242541405E-001
-9.5375210E-002	4.560517775653672E-001
-9.4403677E-002	4.561491051205882E-001
-9.3478106E-002	4.562661513599711E-001
-9.2086181E-002	4.565634893736341E-001
-9.1686532E-002	4.566511713244310E-001
-9.0737469E-002	4.568074759149905E-001
-8.9169428E-002	4.570914784239415E-001
-8.7900996E-002	4.572152830275560E-001
-8.6978994E-002	4.571213019252944E-001
-8.6461194E-002	4.574014307862093E-001
-8.5656472E-002	4.575538315042613E-001
-8.4509619E-002	4.575549171616622E-001
-8.3514325E-002	4.577146173213367E-001
-8.2539529E-002	4.577156447759974E-001
-8.1088223E-002	4.580488076640510E-001
-8.0764718E-002	4.581783291090398E-001
-7.9593666E-002	4.582997364220809E-001
-7.8560300E-002	4.584216364417930E-001
-7.6931879E-002	4.584845746441832E-001
-7.6360963E-002	4.585479308885567E-001
-7.5267024E-002	4.589209591073011E-001
-7.5102359E-002	4.590273568700876E-001
-7.3292546E-002	4.589728693029400E-001
-7.2153628E-002	4.593746676627118E-001
-7.1213551E-002	4.593725726491806E-001
-7.0498407E-002	4.594645938939497E-001
-6.8954110E-002	4.596457725597745E-001
-6.8247616E-002	4.597442711319202E-001
-6.7266002E-002	4.599472794129884E-001
-6.6145122E-002	4.602146977903669E-001
-6.5643862E-002	4.601364552482803E-001
-6.4460613E-002	4.604496090776400E-001
-6.3500106E-002	4.603662362045595E-001
-6.2460039E-002	4.604791847092136E-001
-6.1426554E-002	4.606545652366352E-001
-6.0767215E-002	4.607974858093902E-001
-5.9262861E-002	4.610672646926521E-001
-5.7848182E-002	4.611822179070249E-001
-5.6968812E-002	4.613197338458779E-001
-5.6754451E-002	4.614575056152201E-001
-5.5364802E-002	4.615227704936729E-001
-5.5000134E-002	4.617257628085794E-001
-5.3226348E-002	4.617602707887141E-001
-5.2125618E-002	4.619349197105134E-001
-5.1283050E-002	4.621685099444570E-001
-5.0257832E-002	4.621270496260230E-001
-4.9399391E-002	4.621643287208084E-001
-4.8530903E-002	4.622638278675306E-001
-4.7850400E-002	4.625708844374747E-001
-4.6230406E-002	4.627368631115116E-001
-4.6076588E-002	4.628794154635183E-001
-4.4028502E-002	4.630501417926052E-001
-4.3028843E-002	4.631503663523882E-001
-4.1857373E-002	4.632507697851569E-001
-4.0906619E-002	4.630824940762018E-001
-4.0561941E-002	4.636443675584978E-001
-3.8806561E-002	4.634030084643097E-001
-3.8672891E-002	4.638027224823449E-001
-3.7114423E-002	4.638380220642784E-001
-3.6271427E-002	4.639083572697853E-001
-3.5212632E-002	4.641305636162434E-001
-3.4567833E-002	4.642455437807005E-001
-3.3175003E-002	4.643856120054384E-001
-3.2665581E-002	4.644409415501605E-001
-3.1775597E-002	4.645693352514941E-001
-3.0875331E-002	4.648046435581308E-001
-2.9259339E-002	4.646733606366524E-001
-2.8442647E-002	4.649622650058198E-001
-2.7307769E-002	4.650263352388579E-001
-2.6404740E-002	4.652367914980360E-001
-2.4983279E-002	4.653463168414653E-001
-2.4219096E-002	4.654245805882100E-001
-2.3188679E-002	4.655985475552291E-001
-2.2655601E-002	4.658260577944691E-001
-2.1317896E-002	4.659113194969624E-001
-2.0287411E-002	4.659784594895680E-001
-1.9685395E-002	4.660880987153018E-001
-1.8197058E-002	4.662037017431420E-001
-1.7224928E-002	4.665207454451803E-001
-1.6579425E-002	4.665099168541254E-001
-1.5870791E-002	4.665006654010164E-001
-1.4003136E-002	4.668044241628166E-001
-1.3040292E-002	4.668952119019290E-001
-1.1953985E-002	4.669486032483956E-001
-1.1961198E-002	4.670336497602641E-001
-1.0439504E-002	4.672649023587692E-001
-9.3344245E-003	4.675179726133762E-001
-8.7688928E-003	4.674749531679687E-001
-7.2962288E-003	4.674598003511388E-001
-6.1614225E-003	4.674722661298745E-001
-4.9374471E-003	4.678362783182548E-001
-4.2415438E-003	4.678918222885713E-001
-3.8825374E-003	4.679842525748175E-001
-2.0841211E-003	4.681495363927533E-001
-1.4547249E-003	4.684164359575078E-001
-2.5070386E-004	4.684107592674325E-001
5.0108740E-004	4.684677316177508E-001
1.6009558E-003	4.686352366374598E-001
2.5561652E-003	4.687689275791256E-001
3.5860077E-003	4.689816714571293E-001
4.6507102E-003	4.687326162777579E-001
5.7637421E-003	4.691775412885126E-001
6.2749293E-003	4.690554998726588E-001
7.9834452E-003	4.697420271960171E-001