EC-Lab ASCII FILE
Nb header lines : 63                          

Linear Sweep Voltammetry

Run on channel : 6 (SN 13765)
User : 
Electrode connection : standard
Potential control : Ewe
Ewe ctrl range : min = -2.50 V, max = 2.50 V
Ewe,I filtering : <None>
Safety Limits :
	Do not start on E overload
Channel : Floating
Acquisition started on : 07/17/2026 15:13:32.644
Technique started on : 07/17/2026 15:13:33.641
Loaded Setting File :  C:\Users\EEM-620\Desktop\Wade\abao\20260629\N719_0629-0-1_C06.mpr
Saved on :
	File : N719_0717-d-1_C06.mpr
	Directory : C:\Users\EEM-620\Desktop\Wade\abao\20260717\
	Host : 192.109.209.200
Device : VSP-300 (SN 0025)
Address : 192.109.209.129
EC-LAB for windows v11.62 (software)
Internet server v27.00 (firmware)
Command interpretor v12.02 (firmware)
Electrode material : Au/Pd
Initial state : 
Electrolyte : NaCl (0.2M)
Comments : Fe(CN)63-/Fe(CN)64- 5.10-3 M
Cable : ULC
Reference electrode : SCE Saturated Calomel Electrode (0.241 V)
Electrode surface area : 0.001 cm2
Characteristic mass : 0.001 g
Equivalent Weight : 0.000 g/eq.
Density : 0.000 g/cm3
Volume (V) : 0.001 cm3
Cycle Definition : Charge/Discharge alternance
tR (h:m:s)          0:00:5.0000         
dER/dt (mV/h)       0.0                 
dER (mV)            0                   
dtR (s)             0.0500              
dE/dt               10.000              
dE/dt unit          mV/s                
Ei (V)              -0.800              
vs.                 Ref                 
EL (V)              0.010               
vs.                 Ref                 
record              <I>                 
dI                  0.000               
unit dI             uA                  
tI (s)              0.0000              
step percent        50                  
N                   10                  
E range min (V)     -2.500              
E range max (V)     2.500               
I Range             Auto                
I Range min         Unset               
I Range max         Unset               
I Range init        Unset               
Bandwidth           8                   

Ewe/V	<I>/mA	
-8.2415622E-001	0.000000000000000E+000
-8.2485873E-001	0.000000000000000E+000
-8.2480150E-001	0.000000000000000E+000
-8.2576370E-001	0.000000000000000E+000
-8.2594317E-001	0.000000000000000E+000
-8.2475948E-001	0.000000000000000E+000
-8.2448077E-001	0.000000000000000E+000
-8.2458383E-001	0.000000000000000E+000
-8.2444638E-001	0.000000000000000E+000
-8.2570261E-001	0.000000000000000E+000
-8.2437766E-001	0.000000000000000E+000
-8.2418293E-001	0.000000000000000E+000
-8.2727575E-001	0.000000000000000E+000
-8.2584012E-001	0.000000000000000E+000
-8.2566440E-001	0.000000000000000E+000
-8.2463348E-001	0.000000000000000E+000
-8.2442731E-001	0.000000000000000E+000
-8.2456481E-001	0.000000000000000E+000
-8.2603478E-001	0.000000000000000E+000
-8.2522148E-001	0.000000000000000E+000
-8.2361782E-001	0.000000000000000E+000
-8.2388127E-001	0.000000000000000E+000
-8.2568735E-001	0.000000000000000E+000
-8.2472515E-001	0.000000000000000E+000
-8.2486641E-001	0.000000000000000E+000
-8.2679081E-001	0.000000000000000E+000
-8.2527113E-001	0.000000000000000E+000
-8.2548112E-001	0.000000000000000E+000
-8.2417911E-001	0.000000000000000E+000
-8.2401109E-001	0.000000000000000E+000
-8.2486641E-001	0.000000000000000E+000
-8.2519478E-001	0.000000000000000E+000
-8.2470608E-001	0.000000000000000E+000
-8.2486647E-001	0.000000000000000E+000
-8.2524443E-001	0.000000000000000E+000
-8.2533222E-001	0.000000000000000E+000
-8.2348800E-001	0.000000000000000E+000
-8.2431275E-001	0.000000000000000E+000
-8.2546586E-001	0.000000000000000E+000
-8.2502300E-001	0.000000000000000E+000
-8.2464874E-001	0.000000000000000E+000
-8.2393855E-001	0.000000000000000E+000
-8.2516426E-001	0.000000000000000E+000
-8.2434714E-001	0.000000000000000E+000
-8.2531697E-001	0.000000000000000E+000
-8.2335436E-001	0.000000000000000E+000
-8.2525975E-001	0.000000000000000E+000
-8.2333529E-001	0.000000000000000E+000
-8.2488167E-001	0.000000000000000E+000
-8.2417148E-001	0.000000000000000E+000
-8.2434708E-001	0.000000000000000E+000
-8.2594317E-001	0.000000000000000E+000
-8.2534748E-001	0.000000000000000E+000
-8.2489312E-001	0.000000000000000E+000
-8.2625622E-001	0.000000000000000E+000
-8.2543534E-001	0.000000000000000E+000
-8.2482821E-001	0.000000000000000E+000
-8.2427460E-001	0.000000000000000E+000
-8.2425928E-001	0.000000000000000E+000
-8.2442349E-001	0.000000000000000E+000
-8.2471365E-001	0.000000000000000E+000
-8.2904744E-001	0.000000000000000E+000
-8.2837540E-001	0.000000000000000E+000
-7.8936011E-001	1.035027246689424E-002
-7.8941107E-001	1.009953385632620E-002
-7.8833872E-001	1.006185250029104E-002
-7.8737652E-001	1.021788647092226E-002
-7.8628147E-001	1.041130473703780E-002
-7.8550595E-001	1.064465214127538E-002
-7.8425282E-001	1.086940636862645E-002
-7.8358978E-001	1.111843671835097E-002
-7.8218460E-001	1.136499992787351E-002
-7.8161222E-001	1.161915933161950E-002
-7.8065938E-001	1.186993960032440E-002
-7.7918452E-001	1.211976486525523E-002
-7.7820414E-001	1.237661582837740E-002
-7.7772653E-001	1.265244243054273E-002
-7.7627623E-001	1.290491508337215E-002
-7.7527410E-001	1.317554097284560E-002
-7.7431124E-001	1.344550087513335E-002
-7.7289391E-001	1.370956799472170E-002
-7.7219605E-001	1.398530282097427E-002
-7.7154726E-001	1.425832185325110E-002
-7.7055031E-001	1.453562723104398E-002
-7.6957768E-001	1.482173258706038E-002
-7.6822090E-001	1.509916960882643E-002
-7.6749545E-001	1.540011735561316E-002
-7.6626635E-001	1.567254411444693E-002
-7.6518184E-001	1.599367881081647E-002
-7.6445174E-001	1.627547076651464E-002
-7.6347959E-001	1.657350760608642E-002
-7.6217848E-001	1.688306783196623E-002
-7.6124483E-001	1.716417282434766E-002
-7.6051748E-001	1.747223494048394E-002
-7.5965905E-001	1.779363312107936E-002
-7.5851381E-001	1.810529074821345E-002
-7.5749445E-001	1.840957601477081E-002
-7.5639343E-001	1.872980844618510E-002
-7.5542343E-001	1.906099920678465E-002
-7.5448167E-001	1.936849789193795E-002
-7.5360346E-001	1.969798850176373E-002
-7.5235969E-001	2.003050957918521E-002
-7.5167012E-001	2.034744573972638E-002
-7.5047189E-001	2.068098422190021E-002
-7.4972534E-001	2.103098059133440E-002
-7.4860370E-001	2.136866590627998E-002
-7.4759191E-001	2.167899570971102E-002
-7.4633425E-001	2.201850857602919E-002
-7.4558741E-001	2.236717008921522E-002
-7.4451804E-001	2.274858328315460E-002
-7.4371719E-001	2.308337144872730E-002
-7.4230212E-001	2.347188513255738E-002
-7.4123639E-001	2.380270660742770E-002
-7.4043262E-001	2.417825598321444E-002
-7.3933941E-001	2.453941782572522E-002
-7.3834914E-001	2.492025124202323E-002
-7.3785251E-001	2.527132611807990E-002
-7.3655623E-001	2.564648435963374E-002
-7.3543173E-001	2.602892813134794E-002
-7.3433954E-001	2.641142295659182E-002
-7.3346674E-001	2.679744064894130E-002
-7.3250794E-001	2.721269113546276E-002
-7.3109001E-001	2.759468585455166E-002
-7.3047495E-001	2.798525658349890E-002
-7.2955579E-001	2.836441017980507E-002
-7.2841650E-001	2.878821902590911E-002
-7.2723395E-001	2.916833105566058E-002
-7.2641522E-001	2.959124985823608E-002
-7.2528321E-001	2.999307889762792E-002
-7.2446519E-001	3.040889067213151E-002
-7.2353011E-001	3.081577350126785E-002
-7.2231996E-001	3.123122816770398E-002
-7.2126609E-001	3.165244061448114E-002
-7.2009951E-001	3.207028356642699E-002
-7.1961081E-001	3.247646646384442E-002
-7.1823162E-001	3.288526383349327E-002
-7.1727133E-001	3.333047706465653E-002
-7.1665865E-001	3.375998049267315E-002
-7.1550041E-001	3.422718854724534E-002
-7.1427608E-001	3.465703850612223E-002
-7.1331316E-001	3.510807912486302E-002
-7.1237350E-001	3.556567149805945E-002
-7.1133918E-001	3.602507232493812E-002
-7.1068215E-001	3.646555495086229E-002
-7.0936841E-001	3.693275958196152E-002
-7.0838571E-001	3.738769831570032E-002
-7.0723426E-001	3.784751407025988E-002
-7.0622587E-001	3.834248979057875E-002
-7.0562512E-001	3.882769982468481E-002
-7.0432347E-001	3.929673751850626E-002
-7.0359766E-001	3.978007979209636E-002
-7.0213914E-001	4.022956598567329E-002
-7.0103002E-001	4.074819464046786E-002
-7.0063245E-001	4.122448040014842E-002
-6.9925958E-001	4.170700442908265E-002
-6.9862592E-001	4.221173391798171E-002
-6.9779593E-001	4.271091777014213E-002
-6.9645733E-001	4.318543956011417E-002
-6.9504714E-001	4.370872809970017E-002
-6.9433033E-001	4.421171984911237E-002
-6.9336414E-001	4.473892986964152E-002
-6.9254529E-001	4.525664964031739E-002
-6.9131833E-001	4.576589698316880E-002
-6.9041866E-001	4.628650533656276E-002
-6.8951499E-001	4.681310234108449E-002
-6.8873268E-001	4.734005493163668E-002
-6.8757516E-001	4.787114997722060E-002
-6.8621773E-001	4.839084956541029E-002
-6.8550456E-001	4.892824970065030E-002
-6.8432659E-001	4.946390917110785E-002
-6.8356818E-001	5.001951077620975E-002
-6.8246436E-001	5.056971085637230E-002
-6.8151981E-001	5.108004661064958E-002
-6.8026865E-001	5.167671172293264E-002
-6.7915684E-001	5.222057337286290E-002
-6.7864072E-001	5.276102974361052E-002
-6.7705828E-001	5.331359755385817E-002
-6.7622799E-001	5.388221202452709E-002
-6.7547512E-001	5.442595272280637E-002
-6.7447519E-001	5.499719594674279E-002
-6.7337430E-001	5.557244389179972E-002
-6.7237741E-001	5.617061919525490E-002
-6.7172015E-001	5.671493456423016E-002
-6.7012608E-001	5.731948295466638E-002
-6.6936433E-001	5.789731000550091E-002
-6.6821688E-001	5.847677721262512E-002
-6.6741419E-001	5.904197686097620E-002
-6.6657430E-001	5.963662536642333E-002
-6.6562802E-001	6.023322831390932E-002
-6.6440284E-001	6.081818479947426E-002
-6.6326070E-001	6.140840166524320E-002
-6.6238558E-001	6.202475442033717E-002
-6.6156101E-001	6.266874615271933E-002
-6.6074502E-001	6.325402976600147E-002
-6.5944046E-001	6.387166770313057E-002
-6.5925020E-001	6.446219410898291E-002
-6.5787458E-001	6.506886923927135E-002
-6.5600878E-001	6.567505972446308E-002
-6.5556514E-001	6.626924371381304E-002
-6.5447646E-001	6.691510402769973E-002
-6.5347773E-001	6.754118926202220E-002
-6.5238029E-001	6.816818622044374E-002
-6.5128565E-001	6.878356626947188E-002
-6.5024853E-001	6.939236665847925E-002
-6.4970469E-001	7.003611342602015E-002
-6.4804906E-001	7.066192499499917E-002
-6.4757758E-001	7.127323204637737E-002
-6.4645422E-001	7.193823288953694E-002
-6.4543581E-001	7.257340700986470E-002
-6.4471841E-001	7.321266080935195E-002
-6.4336586E-001	7.382290230857014E-002
-6.4247590E-001	7.449302199028762E-002
-6.4120668E-001	7.514001362681111E-002
-6.4038467E-001	7.580593888026932E-002
-6.3933218E-001	7.643221915757525E-002
-6.3831848E-001	7.707920073773067E-002
-6.3716817E-001	7.775396207795915E-002
-6.3658851E-001	7.839908950908114E-002
-6.3550365E-001	7.905392212517304E-002
-6.3447177E-001	7.971136885074237E-002
-6.3334793E-001	8.037474070414474E-002
-6.3249075E-001	8.103173747831205E-002
-6.3133591E-001	8.168718968786998E-002
-6.3059938E-001	8.237267988389019E-002
-6.2932563E-001	8.302954072132707E-002
-6.2877572E-001	8.370871585071549E-002
-6.2731719E-001	8.440353910231790E-002
-6.2676305E-001	8.504702775152728E-002
-6.2518412E-001	8.571178995583661E-002
-6.2443185E-001	8.639321303753922E-002
-6.2339669E-001	8.705644481987873E-002
-6.2234092E-001	8.771194517102893E-002
-6.2158453E-001	8.838715737133596E-002
-6.2065279E-001	8.906432710312018E-002
-6.1942482E-001	8.974183015050663E-002
-6.1851925E-001	9.040587717943205E-002
-6.1721283E-001	9.109149903460567E-002
-6.1639220E-001	9.179446583234308E-002
-6.1528659E-001	9.247182419144129E-002
-6.1447507E-001	9.313360663649528E-002
-6.1364496E-001	9.382521013591294E-002
-6.1248827E-001	9.451250243000731E-002
-6.1143011E-001	9.516961641909916E-002
-6.1040151E-001	9.586882285118392E-002
-6.0934430E-001	9.656115072020510E-002
-6.0828239E-001	9.724270165466953E-002
-6.0771388E-001	9.791759812893930E-002
-6.0648143E-001	9.860957807136961E-002
-6.0551220E-001	9.933062443425711E-002
-6.0430157E-001	1.000071656372810E-001
-6.0329348E-001	1.007109816678348E-001
-6.0249490E-001	1.014129057768050E-001
-6.0161877E-001	1.020816154950470E-001
-6.0015541E-001	1.027632754765673E-001
-5.9965813E-001	1.034753972112579E-001
-5.9841543E-001	1.041669944059798E-001
-5.9762514E-001	1.048230943865089E-001
-5.9646386E-001	1.055315538240524E-001
-5.9553540E-001	1.061988417231650E-001
-5.9448910E-001	1.069827131409029E-001
-5.9327054E-001	1.076373713849874E-001
-5.9221268E-001	1.083132608425486E-001
-5.9139788E-001	1.089959120101947E-001
-5.8982819E-001	1.099207327676197E-001
-5.8929181E-001	1.105850732851996E-001
-5.8812559E-001	1.112664225683719E-001
-5.8693260E-001	1.119877383699294E-001
-5.8609068E-001	1.126171104464890E-001
-5.8475596E-001	1.133516988613543E-001
-5.8377826E-001	1.139972377051086E-001
-5.8283198E-001	1.146629114932232E-001
-5.8189052E-001	1.154710602670637E-001
-5.8134955E-001	1.160587477557131E-001
-5.8059418E-001	1.167623293586075E-001
-5.7912713E-001	1.175393222106829E-001
-5.7883251E-001	1.180349326407120E-001
-5.7723010E-001	1.188278946232189E-001
-5.7620764E-001	1.195539514948096E-001
-5.7516140E-001	1.203298666923589E-001
-5.7474202E-001	1.209731012651769E-001
-5.7346821E-001	1.216060400216119E-001
-5.7210618E-001	1.223163953669357E-001
-5.7087421E-001	1.229839928068772E-001
-5.7005954E-001	1.236246641265697E-001
-5.6946480E-001	1.243290383265253E-001
-5.6825584E-001	1.249625721463459E-001
-5.6719506E-001	1.255937835647367E-001
-5.6623256E-001	1.262450086263327E-001
-5.6522024E-001	1.269634973637207E-001
-5.6408232E-001	1.275682773581521E-001
-5.6330210E-001	1.283576679760934E-001
-5.6170875E-001	1.290348134934904E-001
-5.6124771E-001	1.296758345743994E-001
-5.6013924E-001	1.303737659731676E-001
-5.5923218E-001	1.310301147470323E-001
-5.5820823E-001	1.317030488139986E-001
-5.5701995E-001	1.323256069380381E-001
-5.5595130E-001	1.330024287997001E-001
-5.5511051E-001	1.336233931835049E-001
-5.5410737E-001	1.343343573173993E-001
-5.5289167E-001	1.350230117828408E-001
-5.5204058E-001	1.356380011851865E-001
-5.5154872E-001	1.363512002862990E-001
-5.5008823E-001	1.370791329489315E-001
-5.4933643E-001	1.377128659126661E-001
-5.4842615E-001	1.382937235412767E-001
-5.4752344E-001	1.389684944083023E-001
-5.4625398E-001	1.395269162711448E-001
-5.4531109E-001	1.402270953791839E-001
-5.4431796E-001	1.409221032181462E-001
-5.4302138E-001	1.415912204215096E-001
-5.4242581E-001	1.422504187439196E-001
-5.4165906E-001	1.428024478739615E-001
-5.4039329E-001	1.434940247003129E-001
-5.3885674E-001	1.441589318098184E-001
-5.3813714E-001	1.447985192105452E-001
-5.3745556E-001	1.453063595281145E-001
-5.3638929E-001	1.459957613555884E-001
-5.3567177E-001	1.467103802909450E-001
-5.3424901E-001	1.472000471592223E-001
-5.3309566E-001	1.479403650040791E-001
-5.3206521E-001	1.485310042690904E-001
-5.3129876E-001	1.491804706601710E-001
-5.3002578E-001	1.498119672070501E-001
-5.2930182E-001	1.504269823673423E-001
-5.2815437E-001	1.510514175175571E-001
-5.2745420E-001	1.516976195249573E-001
-5.2613789E-001	1.522907322203676E-001
-5.2503371E-001	1.529160736614538E-001
-5.2423918E-001	1.535075498330927E-001
-5.2314824E-001	1.542270060594162E-001
-5.2211589E-001	1.548239103641706E-001
-5.2113217E-001	1.554002511073600E-001
-5.2020472E-001	1.559872662269135E-001
-5.1922625E-001	1.566394729543236E-001
-5.1803827E-001	1.571895208520191E-001
-5.1764703E-001	1.578056061253079E-001
-5.1609033E-001	1.583549223702264E-001
-5.1515484E-001	1.588916378095742E-001
-5.1415539E-001	1.595667000034324E-001
-5.1352352E-001	1.600884782943737E-001
-5.1224846E-001	1.606512806654253E-001
-5.1139808E-001	1.612430471912316E-001
-5.1039553E-001	1.617931578032400E-001
-5.0901949E-001	1.624087559369705E-001
-5.0795585E-001	1.630155398760778E-001
-5.0737679E-001	1.636152167942520E-001
-5.0637013E-001	1.641373471147553E-001
-5.0525635E-001	1.647346661322646E-001
-5.0456411E-001	1.654600526930563E-001
-5.0334841E-001	1.660156278840610E-001
-5.0222039E-001	1.665153671573436E-001
-5.0127131E-001	1.671437302742287E-001
-5.0003308E-001	1.676169746056042E-001
-4.9883819E-001	1.681928434236721E-001
-4.9847379E-001	1.686689701379723E-001
-4.9740776E-001	1.692132004430720E-001
-4.9592671E-001	1.697441884316500E-001
-4.9464190E-001	1.702480163011290E-001
-4.9388337E-001	1.708554610729832E-001
-4.9326071E-001	1.713733637739938E-001
-4.9210531E-001	1.718989647868083E-001
-4.9135664E-001	1.724348974552147E-001
-4.9023575E-001	1.729812313871529E-001
-4.8900223E-001	1.735203254070664E-001
-4.8825753E-001	1.741782869384796E-001
-4.8742890E-001	1.746228153437930E-001
-4.8631141E-001	1.752199329142012E-001
-4.8546398E-001	1.758525460717029E-001
-4.8436320E-001	1.763541492357579E-001
-4.8330158E-001	1.768426649014940E-001
-4.8160109E-001	1.774109432094351E-001
-4.8113656E-001	1.778753289987369E-001
-4.8018074E-001	1.783016249687437E-001
-4.7912407E-001	1.787748185538309E-001
-4.7848648E-001	1.792914170914868E-001
-4.7724250E-001	1.797927218765296E-001
-4.7639975E-001	1.802459979533322E-001
-4.7501332E-001	1.807516202623560E-001
-4.7450206E-001	1.813750219600347E-001
-4.7306320E-001	1.818425470307741E-001
-4.7213194E-001	1.823483157633552E-001
-4.7079495E-001	1.828309662329648E-001
-4.6996698E-001	1.834260753217949E-001
-4.6926144E-001	1.838238645051398E-001
-4.6802077E-001	1.843533866038469E-001
-4.6712235E-001	1.847637954030033E-001
-4.6606556E-001	1.851989147335822E-001
-4.6520030E-001	1.856703427792696E-001
-4.6414277E-001	1.861540224126702E-001
-4.6309322E-001	1.867297060649702E-001
-4.6185288E-001	1.871477565038253E-001
-4.6131295E-001	1.876838767668634E-001
-4.6017012E-001	1.882033569531307E-001
-4.5918643E-001	1.885968963960529E-001
-4.5828167E-001	1.890579215615396E-001
-4.5765683E-001	1.895738048478957E-001
-4.5652962E-001	1.899810762455068E-001
-4.5560092E-001	1.904858049201386E-001
-4.5400634E-001	1.909217307068141E-001
-4.5350280E-001	1.913687456523654E-001
-4.5229530E-001	1.920443420401874E-001
-4.5137575E-001	1.925039368819581E-001
-4.5012903E-001	1.928916764385629E-001
-4.4935286E-001	1.933606015863254E-001
-4.4831067E-001	1.938329693792320E-001
-4.4725871E-001	1.942526295579485E-001
-4.4632012E-001	1.945849437163107E-001
-4.4573230E-001	1.950705291323915E-001
-4.4408295E-001	1.955573488019526E-001
-4.4324657E-001	1.959462264138798E-001
-4.4236964E-001	1.963440714128044E-001
-4.4125935E-001	1.967662605629474E-001
-4.4037798E-001	1.972905771323932E-001
-4.3932727E-001	1.976676315854335E-001
-4.3809849E-001	1.981202305673997E-001
-4.3748990E-001	1.986061573994382E-001
-4.3670505E-001	1.990081941784854E-001
-4.3498802E-001	1.994187805318723E-001
-4.3396282E-001	1.997814488562728E-001
-4.3332687E-001	2.001660550884052E-001
-4.3258125E-001	2.006478091632871E-001
-4.3140376E-001	2.011023539773849E-001
-4.3079984E-001	2.015163080842788E-001
-4.2948270E-001	2.019219453688024E-001
-4.2826903E-001	2.024070422215383E-001
-4.2707059E-001	2.027954854485063E-001
-4.2618346E-001	2.032468761834831E-001
-4.2531779E-001	2.035595547487654E-001
-4.2467183E-001	2.040179036212737E-001
-4.2319226E-001	2.045521525390162E-001
-4.2212781E-001	2.048953714784147E-001
-4.2142656E-001	2.052759016967478E-001
-4.2020828E-001	2.057389967074545E-001
-4.1919872E-001	2.061702236303491E-001
-4.1807425E-001	2.066909761547491E-001
-4.1769606E-001	2.070439033279265E-001
-4.1641182E-001	2.074078373691961E-001
-4.1511360E-001	2.076807183868904E-001
-4.1431645E-001	2.081112023442087E-001
-4.1354877E-001	2.084378534583027E-001
-4.1206470E-001	2.089073918759818E-001
-4.1161084E-001	2.093096813955362E-001
-4.1030890E-001	2.097837159203160E-001
-4.0963307E-001	2.100899388185811E-001
-4.0826058E-001	2.104593241862462E-001
-4.0729016E-001	2.108560601870226E-001
-4.0624624E-001	2.112203164164113E-001
-4.0505186E-001	2.116709018204532E-001
-4.0432993E-001	2.119578894365717E-001
-4.0318975E-001	2.123767294817505E-001
-4.0216643E-001	2.127767458555088E-001
-4.0130052E-001	2.130860027477697E-001
-4.0021613E-001	2.134628236964566E-001
-3.9910844E-001	2.136972657301355E-001
-3.9800110E-001	2.141916234805068E-001
-3.9738399E-001	2.146419505807105E-001
-3.9613289E-001	2.150195346869253E-001
-3.9520290E-001	2.155184008319068E-001
-3.9411241E-001	2.157969075852684E-001
-3.9340621E-001	2.161716755341598E-001
-3.9208099E-001	2.165252664298918E-001
-3.9094123E-001	2.169464386086410E-001
-3.9056626E-001	2.173252984950389E-001
-3.8913074E-001	2.177154348283530E-001
-3.8845745E-001	2.181015721763719E-001
-3.8710642E-001	2.184411650868476E-001
-3.8668486E-001	2.187985265264070E-001
-3.8534448E-001	2.193331949895727E-001
-3.8440412E-001	2.196360754745976E-001
-3.8370773E-001	2.199910165725079E-001
-3.8250390E-001	2.203534331034733E-001
-3.8119292E-001	2.206207732842467E-001
-3.8009050E-001	2.209450661635737E-001
-3.7936798E-001	2.214158098040899E-001
-3.7813574E-001	2.215932371370766E-001
-3.7723553E-001	2.220152440397587E-001
-3.7609977E-001	2.223160749094357E-001
-3.7525350E-001	2.225971149987034E-001
-3.7457967E-001	2.231144027232576E-001
-3.7342227E-001	2.234146945109510E-001
-3.7219656E-001	2.237504155082177E-001
-3.7089694E-001	2.241131996528967E-001
-3.7001768E-001	2.244875500392594E-001
-3.6918989E-001	2.248785534815223E-001
-3.6827821E-001	2.251889015099522E-001
-3.6707225E-001	2.255523089940348E-001
-3.6616316E-001	2.258141861261382E-001
-3.6525750E-001	2.262276251007019E-001
-3.6410800E-001	2.266013059696119E-001
-3.6345950E-001	2.268993332907092E-001
-3.6241901E-001	2.272995840413148E-001
-3.6115265E-001	2.276455189959739E-001
-3.6027953E-001	2.279727389966997E-001
-3.5919791E-001	2.282901600141214E-001
-3.5841596E-001	2.286749901353415E-001
-3.5705727E-001	2.289988684157535E-001
-3.5620579E-001	2.293655898904914E-001
-3.5538504E-001	2.297011363665127E-001
-3.5464120E-001	2.300100705275927E-001
-3.5244781E-001	2.302942211498258E-001
-3.5223311E-001	2.305123547532713E-001
-3.5116971E-001	2.308674547476350E-001
-3.5015765E-001	2.311770849067862E-001
-3.4929556E-001	2.315250817752308E-001
-3.4852934E-001	2.319004846460840E-001
-3.4758976E-001	2.322484189598466E-001
-3.4601733E-001	2.326111108823512E-001
-3.4525260E-001	2.329108907185780E-001
-3.4435406E-001	2.331884888152516E-001
-3.4326115E-001	2.334888464322806E-001
-3.4241498E-001	2.338753276056167E-001
-3.4096178E-001	2.340896029587105E-001
-3.4022731E-001	2.344447028029855E-001
-3.3971947E-001	2.347909207283354E-001
-3.3833465E-001	2.350952229212604E-001
-3.3698833E-001	2.354837453889624E-001
-3.3648747E-001	2.357611156949142E-001
-3.3517465E-001	2.361267270106411E-001
-3.3417106E-001	2.363926837289769E-001
-3.3335933E-001	2.367465662111082E-001
-3.3237353E-001	2.370804010510987E-001
-3.3121720E-001	2.373433312470148E-001
-3.3056372E-001	2.376602116027329E-001
-3.2895592E-001	2.379470009494721E-001
-3.2819504E-001	2.382804162938286E-001
-3.2763147E-001	2.385615899881177E-001
-3.2631728E-001	2.388654337092135E-001
-3.2539707E-001	2.391852810633956E-001
-3.2425347E-001	2.394512048300097E-001
-3.2335430E-001	2.398208316967461E-001
-3.2211336E-001	2.401243392880419E-001
-3.2143241E-001	2.404262016837797E-001
-3.2007185E-001	2.407794312953402E-001
-3.1933844E-001	2.410796007875498E-001
-3.1836188E-001	2.414320536233767E-001
-3.1716844E-001	2.417662150605964E-001
-3.1635639E-001	2.419895385987064E-001
-3.1537363E-001	2.423248808417058E-001
-3.1469038E-001	2.426536003196689E-001
-3.1317794E-001	2.428867220328787E-001
-3.1239471E-001	2.432577964953260E-001
-3.1126121E-001	2.435221624503860E-001
-3.1015974E-001	2.437522240259029E-001
-3.0923486E-001	2.441836263708499E-001
-3.0832362E-001	2.445016542665068E-001
-3.0721352E-001	2.447180379596023E-001
-3.0636185E-001	2.449766659971182E-001
-3.0552375E-001	2.453504306559746E-001
-3.0390221E-001	2.455113265939337E-001
-3.0365786E-001	2.457308911683946E-001
-3.0253854E-001	2.461746144155534E-001
-3.0143455E-001	2.464807434007530E-001
-3.0019614E-001	2.467140292541865E-001
-2.9953450E-001	2.469827576246200E-001
-2.9844567E-001	2.472311843324594E-001
-2.9701400E-001	2.475505526332116E-001
-2.9635915E-001	2.479163561775191E-001
-2.9519525E-001	2.481063966535855E-001
-2.9447085E-001	2.484306317510381E-001
-2.9327527E-001	2.486997792773229E-001
-2.9279351E-001	2.489839250359811E-001
-2.9141462E-001	2.492651214297903E-001
-2.8973147E-001	2.495827003278670E-001
-2.8977305E-001	2.498259475040765E-001
-2.8775141E-001	2.500888343748873E-001
-2.8753403E-001	2.503615960616763E-001
-2.8679201E-001	2.507171728130855E-001
-2.8493991E-001	2.509512977566626E-001
-2.8429592E-001	2.512227294414680E-001
-2.8323090E-001	2.515120295657001E-001
-2.8220370E-001	2.518003329772647E-001
-2.8176075E-001	2.520609766037918E-001
-2.7993628E-001	2.523877912641292E-001
-2.7923325E-001	2.526331602561247E-001
-2.7843422E-001	2.528912791361422E-001
-2.7746344E-001	2.531543769429225E-001
-2.7649936E-001	2.534091863091357E-001
-2.7536431E-001	2.536923338624608E-001
-2.7460945E-001	2.540125860034964E-001
-2.7311274E-001	2.541409458758104E-001
-2.7204821E-001	2.544780075390753E-001
-2.7144372E-001	2.546994898951160E-001
-2.7068621E-001	2.550014206035813E-001
-2.6943439E-001	2.553228402608820E-001
-2.6829407E-001	2.556188010300202E-001
-2.6740441E-001	2.559120399118582E-001
-2.6634455E-001	2.561511010310209E-001
-2.6555890E-001	2.564219190497643E-001
-2.6402205E-001	2.566423391302426E-001
-2.6296175E-001	2.569520210270142E-001
-2.6258618E-001	2.572656029628386E-001
-2.6132569E-001	2.574506686931399E-001
-2.6032889E-001	2.576852172535165E-001
-2.5903070E-001	2.579003289272938E-001
-2.5799993E-001	2.582032400520095E-001
-2.5730804E-001	2.584536922405718E-001
-2.5653499E-001	2.586632044985890E-001
-2.5528708E-001	2.591075341758842E-001
-2.5408089E-001	2.593006200881474E-001
-2.5324577E-001	2.595771599423005E-001
-2.5255603E-001	2.597855626435940E-001
-2.5122204E-001	2.599227359104486E-001
-2.5017774E-001	2.603069624898051E-001
-2.4936196E-001	2.605698686454433E-001
-2.4832971E-001	2.607319671660668E-001
-2.4718314E-001	2.610849402499968E-001
-2.4645171E-001	2.613515794583128E-001
-2.4551244E-001	2.616477516583267E-001
-2.4460496E-001	2.619407101942564E-001
-2.4294168E-001	2.621808954756027E-001
-2.4168818E-001	2.623429817526972E-001
-2.4151868E-001	2.625219578218077E-001
-2.4036430E-001	2.627776053009763E-001
-2.3943773E-001	2.629760502044249E-001
-2.3837195E-001	2.632698152802406E-001
-2.3743102E-001	2.635824437494643E-001
-2.3644547E-001	2.638407708318162E-001
-2.3581263E-001	2.640050017834017E-001
-2.3413856E-001	2.642527499960534E-001
-2.3331152E-001	2.643365043420980E-001
-2.3265541E-001	2.647455719610061E-001
-2.3134169E-001	2.649917875382073E-001
-2.3034704E-001	2.652189804336715E-001
-2.2925667E-001	2.655575971498534E-001
-2.2827813E-001	2.656800079469881E-001
-2.2768764E-001	2.659170860925149E-001
-2.2614792E-001	2.662288535869228E-001
-2.2530413E-001	2.664113345521477E-001
-2.2420192E-001	2.667508149996749E-001
-2.2318369E-001	2.670649020001299E-001
-2.2228682E-001	2.671822824825840E-001
-2.2116527E-001	2.675301474848393E-001
-2.2075546E-001	2.675935316968838E-001
-2.1942137E-001	2.678241211478358E-001
-2.1807694E-001	2.682198028735545E-001
-2.1731009E-001	2.684506771534131E-001
-2.1628636E-001	2.686612205512242E-001
-2.1510610E-001	2.688606781195162E-001
-2.1374741E-001	2.691499578456084E-001
-2.1326719E-001	2.692804287885564E-001
-2.1252725E-001	2.694845128528498E-001
-2.1145368E-001	2.698206881889043E-001
-2.1031274E-001	2.699857044245734E-001
-2.0893510E-001	2.701944387690338E-001
-2.0812158E-001	2.704472891917384E-001
-2.0730828E-001	2.706499956998134E-001
-2.0632996E-001	2.708370007781511E-001
-2.0534560E-001	2.711368458646932E-001
-2.0418049E-001	2.714127014149661E-001
-2.0332305E-001	2.715977934292626E-001
-2.0224901E-001	2.717915141016458E-001
-2.0148368E-001	2.720311024329729E-001
-2.0048818E-001	2.723264094373169E-001
-1.9950883E-001	2.724261977699438E-001
-1.9837667E-001	2.726617429957336E-001
-1.9681583E-001	2.729690703735865E-001
-1.9658667E-001	2.732138595649642E-001
-1.9551782E-001	2.733662335064126E-001
-1.9434398E-001	2.736957769218451E-001
-1.9336282E-001	2.738661841592851E-001
-1.9271560E-001	2.740028131822192E-001
-1.9119307E-001	2.743101770384806E-001
-1.9049908E-001	2.744520959892762E-001
-1.8970998E-001	2.746616612291989E-001
-1.8791044E-001	2.749824778186070E-001
-1.8751234E-001	2.751612404913275E-001
-1.8633036E-001	2.753577822198470E-001
-1.8531449E-001	2.756211138501303E-001
-1.8423772E-001	2.758468958307758E-001
-1.8323246E-001	2.761626163911490E-001
-1.8220536E-001	2.762772224086918E-001
-1.8134537E-001	2.765556895001622E-001
-1.8010524E-001	2.767461191379197E-001
-1.7953146E-001	2.769284245937507E-001
-1.7823282E-001	2.772196774129512E-001
-1.7713150E-001	2.774864109419704E-001
-1.7626727E-001	2.775609568451287E-001
-1.7503054E-001	2.778560783093180E-001
-1.7460270E-001	2.780677607608077E-001
-1.7325610E-001	2.781804405428741E-001
-1.7239425E-001	2.784386037469471E-001
-1.7138366E-001	2.786816732503379E-001
-1.7040999E-001	2.789458718702749E-001
-1.6922693E-001	2.791916345142651E-001
-1.6849491E-001	2.792215595087817E-001
-1.6768689E-001	2.795495143229219E-001
-1.6645893E-001	2.797114451669760E-001
-1.6545044E-001	2.800039274756010E-001
-1.6443753E-001	2.802967971742700E-001
-1.6318971E-001	2.804253010361784E-001
-1.6206639E-001	2.807552529567934E-001
-1.6112283E-001	2.808404598316114E-001
-1.6017824E-001	2.810510608074015E-001
-1.5923680E-001	2.811669175064688E-001
-1.5807351E-001	2.814398923267936E-001
-1.5772049E-001	2.814490738076558E-001
-1.5666795E-001	2.817330717074658E-001
-1.5530974E-001	2.819738113997592E-001
-1.5418671E-001	2.822668019130288E-001
-1.5319946E-001	2.824427680698802E-001
-1.5256645E-001	2.826078732382165E-001
-1.5158623E-001	2.827762363271590E-001
-1.5110278E-001	2.828704753407738E-001
-1.4919867E-001	2.831792026831064E-001
-1.4820088E-001	2.833388439138186E-001
-1.4730422E-001	2.835768475714668E-001
-1.4611825E-001	2.837690467287324E-001
-1.4488512E-001	2.839703570223520E-001
-1.4416897E-001	2.841326305642718E-001
-1.4348854E-001	2.843413918000539E-001
-1.4201272E-001	2.845595202374238E-001
-1.4106517E-001	2.846882709922087E-001
-1.4011289E-001	2.848744649715997E-001
-1.3942155E-001	2.849849704653025E-001
-1.3830639E-001	2.852747456518832E-001
-1.3752684E-001	2.854647998249642E-001
-1.3620383E-001	2.857399593900766E-001
-1.3552585E-001	2.858131204670644E-001
-1.3467246E-001	2.860711909554619E-001
-1.3364130E-001	2.862071174162422E-001
-1.3256356E-001	2.863685430348086E-001
-1.3112888E-001	2.865744482518893E-001
-1.3048993E-001	2.867352277454396E-001
-1.2964378E-001	2.868448891324533E-001
-1.2850656E-001	2.870595151972441E-001
-1.2702844E-001	2.873179838381787E-001
-1.2637511E-001	2.875192729342309E-001
-1.2519820E-001	2.876815176396470E-001
-1.2411430E-001	2.878393453744366E-001
-1.2318280E-001	2.879632710720654E-001
-1.2246262E-001	2.880910686734661E-001
-1.2139008E-001	2.883743588593166E-001
-1.2037846E-001	2.885235886399951E-001
-1.1977729E-001	2.887015545188820E-001
-1.1813479E-001	2.889622067889244E-001
-1.1785118E-001	2.889861397928102E-001
-1.1658616E-001	2.892438861556501E-001
-1.1524435E-001	2.894611727032399E-001
-1.1428425E-001	2.897066155586530E-001
-1.1351869E-001	2.898767533804114E-001
-1.1265936E-001	2.899900389214357E-001
-1.1149055E-001	2.902084014344000E-001
-1.1023591E-001	2.902861814279176E-001
-1.0938559E-001	2.904084921228116E-001
-1.0836697E-001	2.905567895138158E-001
-1.0731015E-001	2.907467557222607E-001
-1.0611290E-001	2.909364656510722E-001
-1.0523447E-001	2.911647930396382E-001
-1.0452428E-001	2.913532903231988E-001
-1.0349651E-001	2.914315542827062E-001
-1.0270306E-001	2.915798441495592E-001
-1.0158822E-001	2.918292590313492E-001
-1.0020493E-001	2.920214905645020E-001
-9.9083945E-002	2.921603562419230E-001
-9.8638803E-002	2.922502514664780E-001
-9.7189121E-002	2.926106235633297E-001
-9.6089035E-002	2.927260399015677E-001
-9.5485725E-002	2.928302586078650E-001
-9.4599679E-002	2.930986957831516E-001
-9.3882538E-002	2.931707748977717E-001
-9.2466526E-002	2.933801113869313E-001
-9.1435798E-002	2.935208012522375E-001
-9.0610616E-002	2.936274696414427E-001
-8.9234546E-002	2.939102452731248E-001
-8.8301875E-002	2.939572908172559E-001
-8.7182648E-002	2.941921988709115E-001
-8.6523138E-002	2.943766043280012E-001
-8.5572064E-002	2.944250352893998E-001
-8.3865821E-002	2.946718133365112E-001
-8.3383441E-002	2.948799999085840E-001
-8.2334206E-002	2.950144766498544E-001
-8.1180714E-002	2.950980715039710E-001
-8.0103107E-002	2.952738466362161E-001
-7.9280801E-002	2.953208895485959E-001
-7.8274347E-002	2.954902083578503E-001
-7.7411421E-002	2.956084283602367E-001
-7.6479338E-002	2.958417759725331E-001
-7.5592846E-002	2.959563445851759E-001
-7.4169181E-002	2.960074034463807E-001
-7.3357448E-002	2.962802440204007E-001
-7.2591886E-002	2.963410031257407E-001
-7.1491867E-002	2.964721665689134E-001
-7.0344821E-002	2.968125413344409E-001
-6.9331914E-002	2.969619659017086E-001
-6.8406418E-002	2.970772381774068E-001
-6.7740746E-002	2.971985970313356E-001
-6.5775171E-002	2.973757089909033E-001
-6.5186515E-002	2.975378347689754E-001
-6.4414166E-002	2.977515259343724E-001
-6.2884614E-002	2.978554013387842E-001
-6.2528774E-002	2.979558689036858E-001
-6.1401524E-002	2.981548922619327E-001
-6.0183622E-002	2.982318601062550E-001
-5.9695385E-002	2.982758376747370E-001
-5.8244009E-002	2.985181835031618E-001
-5.7556748E-002	2.987226033941299E-001
-5.6427136E-002	2.989742222621481E-001
-5.5241983E-002	2.990361154079437E-001
-5.3971063E-002	2.991799481871680E-001
-5.3389262E-002	2.993996670745598E-001
-5.1990274E-002	2.995187392527310E-001
-5.1392719E-002	2.996052134296172E-001
-5.0024919E-002	2.996960598285553E-001
-4.9311165E-002	2.999291931219217E-001
-4.8774641E-002	3.000784559796275E-001
-4.7501236E-002	3.000558389143810E-001
-4.6917375E-002	3.003581733175025E-001
-4.5311239E-002	3.004751827360856E-001
-4.4453815E-002	3.006321521199971E-001
-4.3603208E-002	3.008926429161320E-001
-4.2620607E-002	3.010531989167680E-001
-4.1050650E-002	3.011549194515855E-001
-4.0430188E-002	3.013072060671522E-001
-3.9547522E-002	3.013634181891884E-001
-3.8226914E-002	3.014729965810901E-001
-3.7322514E-002	3.016173636747741E-001
-3.6343124E-002	3.016908213634188E-001
-3.5810705E-002	3.018694159469208E-001
-3.4488279E-002	3.019696395775240E-001
-3.3040937E-002	3.022251728646178E-001
-3.2317784E-002	3.023334349907252E-001
-3.1471830E-002	3.024007164079832E-001
-3.0493073E-002	3.024667578025007E-001
-2.9161904E-002	3.026499175347408E-001
-2.8164128E-002	3.027812496034632E-001
-2.6957547E-002	3.029665081520334E-001
-2.6484713E-002	3.030720298101994E-001
-2.5025491E-002	3.032625512806346E-001
-2.3855148E-002	3.034186959988130E-001
-2.2952158E-002	3.035656788075964E-001
-2.2080101E-002	3.037110894780459E-001
-2.1303354E-002	3.038430282637647E-001
-2.0361019E-002	3.039229606726650E-001
-1.9257532E-002	3.040728792893117E-001
-1.8517293E-002	3.041683774383026E-001
-1.7394204E-002	3.043879606174666E-001
-1.6607214E-002	3.045786409466356E-001
-1.5189883E-002	3.047084198349398E-001
-1.4192779E-002	3.048479823326620E-001
-1.3765130E-002	3.048368044611469E-001
-1.2643824E-002	3.050410174727203E-001
-1.1197115E-002	3.051079753441379E-001
-1.0340455E-002	3.053189199364339E-001
-9.3157571E-003	3.053854044043902E-001
-8.2587264E-003	3.056227165032857E-001
-7.5227078E-003	3.056947391712654E-001
-6.5964963E-003	3.058216820160538E-001
-5.5343737E-003	3.060032054781905E-001
-4.3730023E-003	3.060547973468717E-001
-3.4430097E-003	3.061130901246703E-001
-2.6748960E-003	3.064048910099602E-001
-1.5590647E-003	3.068436926562605E-001
-1.7094387E-004	3.068343718984612E-001
2.7699023E-004	3.068525418461219E-001
1.4677397E-003	3.068578617854261E-001
2.8571736E-003	3.069938376407935E-001
3.8367989E-003	3.071104005525773E-001
4.4869483E-003	3.071897715606076E-001
5.4937042E-003	3.073063742507398E-001
6.6822744E-003	3.074526925809655E-001
6.5515856E-003	3.079531165686520E-001