EC-Lab ASCII FILE
Nb header lines : 63                          

Linear Sweep Voltammetry

Run on channel : 6 (SN 13765)
User : 
Electrode connection : standard
Potential control : Ewe
Ewe ctrl range : min = -2.50 V, max = 2.50 V
Ewe,I filtering : <None>
Safety Limits :
	Do not start on E overload
Channel : Floating
Acquisition started on : 07/17/2026 15:05:50.239
Technique started on : 07/17/2026 15:05:51.236
Loaded Setting File :  C:\Users\EEM-620\Desktop\Wade\abao\20260629\N719_0629-0-1_C06.mpr
Saved on :
	File : N719_0717-b-2_C06.mpr
	Directory : C:\Users\EEM-620\Desktop\Wade\abao\20260717\
	Host : 192.109.209.200
Device : VSP-300 (SN 0025)
Address : 192.109.209.129
EC-LAB for windows v11.62 (software)
Internet server v27.00 (firmware)
Command interpretor v12.02 (firmware)
Electrode material : Au/Pd
Initial state : 
Electrolyte : NaCl (0.2M)
Comments : Fe(CN)63-/Fe(CN)64- 5.10-3 M
Cable : ULC
Reference electrode : SCE Saturated Calomel Electrode (0.241 V)
Electrode surface area : 0.001 cm2
Characteristic mass : 0.001 g
Equivalent Weight : 0.000 g/eq.
Density : 0.000 g/cm3
Volume (V) : 0.001 cm3
Cycle Definition : Charge/Discharge alternance
tR (h:m:s)          0:00:5.0000         
dER/dt (mV/h)       0.0                 
dER (mV)            0                   
dtR (s)             0.0500              
dE/dt               10.000              
dE/dt unit          mV/s                
Ei (V)              -0.800              
vs.                 Ref                 
EL (V)              0.010               
vs.                 Ref                 
record              <I>                 
dI                  0.000               
unit dI             uA                  
tI (s)              0.0000              
step percent        50                  
N                   10                  
E range min (V)     -2.500              
E range max (V)     2.500               
I Range             Auto                
I Range min         Unset               
I Range max         Unset               
I Range init        Unset               
Bandwidth           8                   

Ewe/V	<I>/mA	
-8.2637084E-001	0.000000000000000E+000
-8.2740933E-001	0.000000000000000E+000
-8.2608062E-001	0.000000000000000E+000
-8.2641661E-001	0.000000000000000E+000
-8.2592022E-001	0.000000000000000E+000
-8.2542390E-001	0.000000000000000E+000
-8.2567590E-001	0.000000000000000E+000
-8.2562244E-001	0.000000000000000E+000
-8.2561481E-001	0.000000000000000E+000
-8.2512224E-001	0.000000000000000E+000
-8.2636696E-001	0.000000000000000E+000
-8.2488555E-001	0.000000000000000E+000
-8.2602715E-001	0.000000000000000E+000
-8.2585531E-001	0.000000000000000E+000
-8.2516044E-001	0.000000000000000E+000
-8.2575607E-001	0.000000000000000E+000
-8.2632500E-001	0.000000000000000E+000
-8.2585919E-001	0.000000000000000E+000
-8.2667625E-001	0.000000000000000E+000
-8.2603860E-001	0.000000000000000E+000
-8.2564157E-001	0.000000000000000E+000
-8.2561481E-001	0.000000000000000E+000
-8.2690537E-001	0.000000000000000E+000
-8.2530934E-001	0.000000000000000E+000
-8.2555753E-001	0.000000000000000E+000
-8.2653499E-001	0.000000000000000E+000
-8.2608062E-001	0.000000000000000E+000
-8.2644337E-001	0.000000000000000E+000
-8.2522535E-001	0.000000000000000E+000
-8.2491225E-001	0.000000000000000E+000
-8.2608062E-001	0.000000000000000E+000
-8.2590497E-001	0.000000000000000E+000
-8.2617223E-001	0.000000000000000E+000
-8.2575989E-001	0.000000000000000E+000
-8.2707340E-001	0.000000000000000E+000
-8.2689393E-001	0.000000000000000E+000
-8.2599282E-001	0.000000000000000E+000
-8.2734066E-001	0.000000000000000E+000
-8.2655025E-001	0.000000000000000E+000
-8.2568735E-001	0.000000000000000E+000
-8.2632500E-001	0.000000000000000E+000
-8.2631356E-001	0.000000000000000E+000
-8.2580185E-001	0.000000000000000E+000
-8.2580185E-001	0.000000000000000E+000
-8.2585150E-001	0.000000000000000E+000
-8.2602334E-001	0.000000000000000E+000
-8.2603860E-001	0.000000000000000E+000
-8.2559949E-001	0.000000000000000E+000
-8.2647771E-001	0.000000000000000E+000
-8.2686716E-001	0.000000000000000E+000
-8.2621807E-001	0.000000000000000E+000
-8.2603097E-001	0.000000000000000E+000
-8.2579803E-001	0.000000000000000E+000
-8.2534754E-001	0.000000000000000E+000
-8.2566822E-001	0.000000000000000E+000
-8.2502675E-001	0.000000000000000E+000
-8.2550406E-001	0.000000000000000E+000
-8.2622188E-001	0.000000000000000E+000
-8.2587826E-001	0.000000000000000E+000
-8.2629067E-001	0.000000000000000E+000
-8.2620662E-001	0.000000000000000E+000
-8.3148348E-001	0.000000000000000E+000
-8.3131552E-001	0.000000000000000E+000
-7.8950900E-001	1.165118671125836E-001
-7.8905463E-001	1.174994891647394E-001
-7.8796917E-001	1.194599803744090E-001
-7.8704852E-001	1.217493272794963E-001
-7.8576261E-001	1.240286866064975E-001
-7.8479886E-001	1.265855727337852E-001
-7.8408909E-001	1.290648697829837E-001
-7.8327471E-001	1.316184062096806E-001
-7.8213197E-001	1.341653478124902E-001
-7.8107280E-001	1.367150142384927E-001
-7.8016263E-001	1.393307018507688E-001
-7.7906275E-001	1.419530225296816E-001
-7.7783388E-001	1.445590511126360E-001
-7.7710521E-001	1.470601887580154E-001
-7.7597767E-001	1.496863476016386E-001
-7.7524251E-001	1.522657284513119E-001
-7.7370870E-001	1.548532223742871E-001
-7.7320004E-001	1.574772011843942E-001
-7.7186888E-001	1.600725396915728E-001
-7.7110857E-001	1.627153111966670E-001
-7.6997077E-001	1.653040533368371E-001
-7.6919794E-001	1.678215576922175E-001
-7.6825005E-001	1.703880126243112E-001
-7.6694936E-001	1.729536323703611E-001
-7.6571500E-001	1.755852893132857E-001
-7.6523590E-001	1.780992039755267E-001
-7.6404452E-001	1.806784923107405E-001
-7.6292115E-001	1.832994421840546E-001
-7.6192319E-001	1.859306621133392E-001
-7.6125336E-001	1.884259930639351E-001
-7.6010191E-001	1.910052781717646E-001
-7.5925952E-001	1.935553028940591E-001
-7.5824982E-001	1.961166787789095E-001
-7.5694460E-001	1.986928792256446E-001
-7.5608879E-001	2.011740951655791E-001
-7.5525904E-001	2.037159292786206E-001
-7.5409049E-001	2.063012879548797E-001
-7.5322115E-001	2.089133660302194E-001
-7.5225157E-001	2.114938692431201E-001
-7.5111943E-001	2.140777913071581E-001
-7.5009966E-001	2.167310357369772E-001
-7.4887133E-001	2.192684089144077E-001
-7.4821162E-001	2.218654035094565E-001
-7.4709380E-001	2.244298835457474E-001
-7.4636245E-001	2.270086942999456E-001
-7.4498373E-001	2.297141769529247E-001
-7.4403882E-001	2.321812499797451E-001
-7.4310589E-001	2.348101484347840E-001
-7.4200934E-001	2.374372982133037E-001
-7.4130750E-001	2.400572945674258E-001
-7.4012047E-001	2.427381114275361E-001
-7.3891407E-001	2.453287473149395E-001
-7.3804706E-001	2.478530651855251E-001
-7.3692048E-001	2.505874276793194E-001
-7.3622727E-001	2.531676892605092E-001
-7.3517567E-001	2.558406930140884E-001
-7.3429567E-001	2.584725088702284E-001
-7.3291969E-001	2.611588446285431E-001
-7.3237228E-001	2.637998693519159E-001
-7.3163819E-001	2.665250990901722E-001
-7.3026109E-001	2.692441568813382E-001
-7.2884154E-001	2.718680206755242E-001
-7.2820592E-001	2.745473160378999E-001
-7.2707283E-001	2.772737244420034E-001
-7.2634208E-001	2.798528114540710E-001
-7.2532600E-001	2.826333642950739E-001
-7.2396523E-001	2.853703249797781E-001
-7.2324020E-001	2.880307934396829E-001
-7.2269940E-001	2.907559583998401E-001
-7.2104824E-001	2.934756074790599E-001
-7.2003120E-001	2.961786728371423E-001
-7.1943241E-001	2.989285536869266E-001
-7.1808016E-001	3.016594125440837E-001
-7.1741861E-001	3.044884461603643E-001
-7.1580291E-001	3.072158351402594E-001
-7.1517086E-001	3.099966072649882E-001
-7.1403521E-001	3.126729719177511E-001
-7.1311963E-001	3.154756966633387E-001
-7.1203518E-001	3.181928121681874E-001
-7.1090358E-001	3.210167525750069E-001
-7.0996606E-001	3.237923458908440E-001
-7.0900387E-001	3.266652540100036E-001
-7.0816898E-001	3.293846309598956E-001
-7.0696932E-001	3.321201411179366E-001
-7.0613885E-001	3.349345106719763E-001
-7.0496476E-001	3.378611501582252E-001
-7.0408928E-001	3.405725607579506E-001
-7.0339614E-001	3.434123971750291E-001
-7.0196569E-001	3.462171881908065E-001
-7.0125145E-001	3.490302816585258E-001
-7.0002681E-001	3.517727623836127E-001
-6.9912660E-001	3.545896848663670E-001
-6.9809455E-001	3.574371794614155E-001
-6.9681221E-001	3.602536725294243E-001
-6.9628745E-001	3.631142640003457E-001
-6.9520116E-001	3.659021838286081E-001
-6.9412434E-001	3.687884609594381E-001
-6.9340020E-001	3.716600430025556E-001
-6.9220549E-001	3.744747563973529E-001
-6.9096577E-001	3.772595038775499E-001
-6.9009137E-001	3.800879748262196E-001
-6.8922597E-001	3.829963307158906E-001
-6.8796825E-001	3.858296182006598E-001
-6.8723071E-001	3.886786124902200E-001
-6.8613672E-001	3.915749525789307E-001
-6.8522453E-001	3.943937447060037E-001
-6.8469179E-001	3.972033971076421E-001
-6.8327171E-001	4.000626234682614E-001
-6.8224955E-001	4.028060564564324E-001
-6.8125588E-001	4.056807456817713E-001
-6.7977566E-001	4.086662300482944E-001
-6.7884272E-001	4.114948262081128E-001
-6.7803091E-001	4.143065214630272E-001
-6.7739475E-001	4.172193142412997E-001
-6.7608058E-001	4.201558960118774E-001
-6.7532223E-001	4.229669221519439E-001
-6.7425734E-001	4.256708387423460E-001
-6.7314553E-001	4.286818015623171E-001
-6.7208350E-001	4.313707902199688E-001
-6.7111045E-001	4.341762868204597E-001
-6.6982049E-001	4.371514732949340E-001
-6.6890717E-001	4.400132446101406E-001
-6.6818964E-001	4.428768564291570E-001
-6.6708332E-001	4.456814568418115E-001
-6.6637260E-001	4.486489013113358E-001
-6.6524071E-001	4.515274635481621E-001
-6.6434717E-001	4.543477549563022E-001
-6.6336739E-001	4.570935772111007E-001
-6.6225690E-001	4.600804709587942E-001
-6.6134048E-001	4.628932590561892E-001
-6.5988445E-001	4.657585364938908E-001
-6.5916985E-001	4.686141173739751E-001
-6.5839750E-001	4.715222850165954E-001
-6.5716606E-001	4.742040325784017E-001
-6.5592736E-001	4.771069495404756E-001
-6.5500957E-001	4.799337169086497E-001
-6.5395766E-001	4.828420858830230E-001
-6.5296757E-001	4.855469958043557E-001
-6.5193242E-001	4.885492018527438E-001
-6.5083593E-001	4.913159869611246E-001
-6.5009332E-001	4.941702443577376E-001
-6.4907038E-001	4.969083817882680E-001
-6.4829063E-001	4.997598348116448E-001
-6.4717269E-001	5.025422159978294E-001
-6.4602679E-001	5.053629412971157E-001
-6.4529330E-001	5.080427355585257E-001
-6.4404428E-001	5.107630559553735E-001
-6.4305490E-001	5.133913113839070E-001
-6.4253569E-001	5.161309785863621E-001
-6.4130342E-001	5.190292051820857E-001
-6.3974845E-001	5.218240196506194E-001
-6.3912833E-001	5.248711815141229E-001
-6.3819909E-001	5.275757219642410E-001
-6.3707930E-001	5.304222100034890E-001
-6.3607466E-001	5.330901127485970E-001
-6.3534087E-001	5.358362259274263E-001
-6.3420910E-001	5.386768786710956E-001
-6.3297868E-001	5.413406621664763E-001
-6.3225579E-001	5.441389557802001E-001
-6.3113648E-001	5.467750527503839E-001
-6.3006252E-001	5.495335928129919E-001
-6.2903899E-001	5.522427403678503E-001
-6.2818372E-001	5.549773642573426E-001
-6.2697518E-001	5.577072650194141E-001
-6.2605399E-001	5.604001129804939E-001
-6.2543565E-001	5.630259456989037E-001
-6.2427825E-001	5.657518917901658E-001
-6.2332028E-001	5.683585301179557E-001
-6.2219179E-001	5.710866982672185E-001
-6.2100130E-001	5.737752303205177E-001
-6.2035054E-001	5.763130922312110E-001
-6.1892688E-001	5.791003065252758E-001
-6.1784697E-001	5.817778885916454E-001
-6.1710340E-001	5.842738661809603E-001
-6.1617249E-001	5.870723518094518E-001
-6.1484474E-001	5.895902515147571E-001
-6.1419219E-001	5.920647588241028E-001
-6.1336046E-001	5.948320820375734E-001
-6.1227208E-001	5.973698694120948E-001
-6.1125922E-001	5.999211859587970E-001
-6.0995477E-001	6.024183523323767E-001
-6.0902750E-001	6.050559258544972E-001
-6.0819775E-001	6.077364643828744E-001
-6.0696870E-001	6.099283811118879E-001
-6.0632992E-001	6.125293790780422E-001
-6.0524344E-001	6.151385193483696E-001
-6.0401219E-001	6.176478838617061E-001
-6.0372710E-001	6.201894911201067E-001
-6.0226536E-001	6.226802533837392E-001
-6.0097224E-001	6.252126094229788E-001
-6.0036308E-001	6.278051313454505E-001
-5.9908432E-001	6.301569408840617E-001
-5.9809262E-001	6.325871491183852E-001
-5.9731323E-001	6.349054694491727E-001
-5.9622949E-001	6.373169519421129E-001
-5.9490740E-001	6.396837699677986E-001
-5.9415126E-001	6.418820549216524E-001
-5.9294212E-001	6.444389029509487E-001
-5.9206098E-001	6.467701068342144E-001
-5.9131002E-001	6.489859046069544E-001
-5.8994669E-001	6.514180263987290E-001
-5.8865720E-001	6.535893564451074E-001
-5.8836865E-001	6.559513847999008E-001
-5.8715367E-001	6.581763768637634E-001
-5.8573687E-001	6.603562999684431E-001
-5.8507419E-001	6.629489715452568E-001
-5.8429545E-001	6.651176652284665E-001
-5.8315951E-001	6.673262200937682E-001
-5.8240914E-001	6.695918364933231E-001
-5.8124167E-001	6.720109144429838E-001
-5.8023429E-001	6.743702681528205E-001
-5.7917851E-001	6.764296378802390E-001
-5.7815868E-001	6.785181662209228E-001
-5.7728314E-001	6.807842717540478E-001
-5.7625896E-001	6.829167201563173E-001
-5.7524097E-001	6.850302890463791E-001
-5.7375807E-001	6.870235370265103E-001
-5.7299179E-001	6.891007566203688E-001
-5.7238084E-001	6.912902040041375E-001
-5.7125068E-001	6.934609414526721E-001
-5.7000488E-001	6.954020446367259E-001
-5.6938398E-001	6.974773978193598E-001
-5.6804883E-001	6.994891876561775E-001
-5.6714398E-001	7.015353443302985E-001
-5.6618273E-001	7.034590476089058E-001
-5.6555140E-001	7.054752210086148E-001
-5.6364417E-001	7.075029299914171E-001
-5.6304687E-001	7.092976625318892E-001
-5.6191003E-001	7.113935532117335E-001
-5.6113446E-001	7.132708245279815E-001
-5.5994469E-001	7.151608202192534E-001
-5.5903637E-001	7.171771126212860E-001
-5.5800080E-001	7.189715294656303E-001
-5.5707908E-001	7.208521572390083E-001
-5.5567926E-001	7.226972560442795E-001
-5.5534410E-001	7.245234388306194E-001
-5.5393869E-001	7.261469704961350E-001
-5.5263627E-001	7.281982130277385E-001
-5.5243373E-001	7.299129410336409E-001
-5.5094469E-001	7.316993835071681E-001
-5.5021328E-001	7.334629859030875E-001
-5.4924417E-001	7.351795627425091E-001
-5.4803663E-001	7.369645097879349E-001
-5.4684877E-001	7.386257107851804E-001
-5.4601258E-001	7.403664393005513E-001
-5.4517257E-001	7.420145816825077E-001
-5.4414189E-001	7.436864623730948E-001
-5.4318833E-001	7.452436345456910E-001
-5.4205287E-001	7.470821003388952E-001
-5.4115927E-001	7.486580174968189E-001
-5.4023659E-001	7.502605468724610E-001
-5.3947961E-001	7.520371317834087E-001
-5.3802323E-001	7.535506122642097E-001
-5.3723007E-001	7.551371237194093E-001
-5.3633392E-001	7.564813160523229E-001
-5.3503758E-001	7.582400562586633E-001
-5.3405643E-001	7.597933822759870E-001
-5.3300381E-001	7.613653931288766E-001
-5.3163356E-001	7.628687998900805E-001
-5.3130412E-001	7.642371712358860E-001
-5.2987057E-001	7.657403021498990E-001
-5.2903241E-001	7.671691659423994E-001
-5.2807850E-001	7.685858839901236E-001
-5.2747053E-001	7.701811473126767E-001
-5.2629578E-001	7.714648437168847E-001
-5.2542400E-001	7.729403728046300E-001
-5.2396560E-001	7.745197192524298E-001
-5.2313739E-001	7.758104700457142E-001
-5.2222067E-001	7.773003268681862E-001
-5.2106214E-001	7.785549977863298E-001
-5.2057177E-001	7.800636463971049E-001
-5.1912034E-001	7.811937636335458E-001
-5.1833373E-001	7.827113159000847E-001
-5.1736224E-001	7.839436561903548E-001
-5.1592553E-001	7.853280654935944E-001
-5.1511985E-001	7.866502736729561E-001
-5.1409286E-001	7.878242842782113E-001
-5.1328856E-001	7.891584974196206E-001
-5.1192647E-001	7.902036565873338E-001
-5.1096797E-001	7.918372379969369E-001
-5.0992948E-001	7.929323529479699E-001
-5.0925899E-001	7.941584541565856E-001
-5.0832397E-001	7.952688716831524E-001
-5.0720215E-001	7.964289278067911E-001
-5.0622159E-001	7.976460649644324E-001
-5.0533229E-001	7.985690020852623E-001
-5.0413102E-001	8.001991695275983E-001
-5.0350505E-001	8.013522775409587E-001
-5.0204921E-001	8.025896821033029E-001
-5.0094527E-001	8.033914546723699E-001
-5.0035143E-001	8.045356063134541E-001
-4.9935538E-001	8.056734020787282E-001
-4.9812329E-001	8.071094468511912E-001
-4.9708152E-001	8.082079959321509E-001
-4.9632958E-001	8.093454904026443E-001
-4.9513167E-001	8.106724815788056E-001
-4.9394363E-001	8.115814512292587E-001
-4.9297515E-001	8.128555802007522E-001
-4.9207321E-001	8.137394492372998E-001
-4.9148330E-001	8.150275116441410E-001
-4.9027205E-001	8.160304813473278E-001
-4.8892164E-001	8.172691994280910E-001
-4.8815778E-001	8.181327094358473E-001
-4.8698741E-001	8.193848462844358E-001
-4.8605654E-001	8.206110598462877E-001
-4.8488212E-001	8.212917117332914E-001
-4.8422998E-001	8.226326927542722E-001
-4.8292273E-001	8.235493669682157E-001
-4.8216772E-001	8.243607035665566E-001
-4.8134425E-001	8.254908693057494E-001
-4.8006281E-001	8.264753711852286E-001
-4.7923973E-001	8.273580535142502E-001
-4.7812384E-001	8.286549082075005E-001
-4.7723642E-001	8.295732186072384E-001
-4.7582507E-001	8.309344896287811E-001
-4.7497603E-001	8.316179928875282E-001
-4.7399870E-001	8.325392957086901E-001
-4.7316319E-001	8.335603125117412E-001
-4.7215614E-001	8.345033172500571E-001
-4.7110865E-001	8.354268025744838E-001
-4.7005397E-001	8.366792466905331E-001
-4.6962094E-001	8.376004473329655E-001
-4.6829548E-001	8.382639617279750E-001
-4.6695504E-001	8.393685424493356E-001
-4.6601677E-001	8.402373980304816E-001
-4.6499515E-001	8.411064194860312E-001
-4.6421632E-001	8.418089529662716E-001
-4.6337831E-001	8.431106449829215E-001
-4.6227780E-001	8.438995239083447E-001
-4.6122307E-001	8.447189845466037E-001
-4.6019512E-001	8.456185106877925E-001
-4.5945993E-001	8.464306256285390E-001
-4.5802310E-001	8.472887665601636E-001
-4.5673198E-001	8.481731069860636E-001
-4.5609814E-001	8.490341516832505E-001
-4.5523497E-001	8.500353403212486E-001
-4.5439920E-001	8.506754159375474E-001
-4.5294517E-001	8.514519342187947E-001
-4.5233688E-001	8.524777496026630E-001
-4.5076841E-001	8.531605486792548E-001
-4.5016882E-001	8.540314624976943E-001
-4.4906718E-001	8.548085132130856E-001
-4.4809094E-001	8.556553507568729E-001
-4.4736680E-001	8.563146157804233E-001
-4.4612917E-001	8.571663058742320E-001
-4.4519711E-001	8.578905231422844E-001
-4.4396976E-001	8.585405055064221E-001
-4.4334692E-001	8.594456942820985E-001
-4.4245043E-001	8.603211121150744E-001
-4.4086120E-001	8.607889074718180E-001
-4.4042927E-001	8.616426758192208E-001
-4.3908000E-001	8.626140611310138E-001
-4.3812856E-001	8.631105696161576E-001
-4.3709490E-001	8.640161308425416E-001
-4.3615511E-001	8.646059850305541E-001
-4.3511829E-001	8.655867855306063E-001
-4.3385932E-001	8.662940942578867E-001
-4.3319044E-001	8.667970153118834E-001
-4.3199301E-001	8.677470206662470E-001
-4.3150702E-001	8.684434595483310E-001
-4.3003318E-001	8.690366890473946E-001
-4.2927095E-001	8.700357203682270E-001
-4.2823067E-001	8.707388445681090E-001
-4.2743844E-001	8.712010655414169E-001
-4.2631775E-001	8.722132149117954E-001
-4.2512232E-001	8.728436170388374E-001
-4.2389524E-001	8.736497264493392E-001
-4.2339063E-001	8.741313570903451E-001
-4.2218465E-001	8.750541863988808E-001
-4.2134404E-001	8.757122382521647E-001
-4.2029014E-001	8.765363894678906E-001
-4.1919181E-001	8.769806279165611E-001
-4.1846731E-001	8.779673155535157E-001
-4.1761929E-001	8.783110178731093E-001
-4.1578859E-001	8.790164502898481E-001
-4.1536114E-001	8.798107842880292E-001
-4.1411093E-001	8.804663514103268E-001
-4.1323605E-001	8.813106254846979E-001
-4.1204327E-001	8.816884522912680E-001
-4.1097760E-001	8.827213531166507E-001
-4.1027308E-001	8.832252570600416E-001
-4.0919825E-001	8.842033245773253E-001
-4.0832540E-001	8.846177711928007E-001
-4.0701246E-001	8.853600516363418E-001
-4.0618664E-001	8.859983351495480E-001
-4.0516761E-001	8.866507204940355E-001
-4.0432927E-001	8.873379494029070E-001
-4.0328303E-001	8.880906300964142E-001
-4.0227208E-001	8.887560270642680E-001
-4.0100646E-001	8.893319245565845E-001
-4.0010005E-001	8.900410661051303E-001
-3.9911136E-001	8.905412854143862E-001
-3.9843023E-001	8.913263519880967E-001
-3.9673236E-001	8.917981211613935E-001
-3.9609027E-001	8.928486976634620E-001
-3.9529005E-001	8.931844521451850E-001
-3.9425048E-001	8.940386892474672E-001
-3.9323354E-001	8.942033797502518E-001
-3.9189962E-001	8.950885880600516E-001
-3.9139766E-001	8.955951572965883E-001
-3.9029366E-001	8.964001334927705E-001
-3.8956067E-001	8.969056147879213E-001
-3.8797784E-001	8.976761213055360E-001
-3.8704193E-001	8.981933218461471E-001
-3.8613102E-001	8.989052185301472E-001
-3.8516948E-001	8.995312936604067E-001
-3.8429150E-001	9.000709770178368E-001
-3.8321933E-001	9.007418153929020E-001
-3.8238105E-001	9.011711171931722E-001
-3.8131300E-001	9.018300023895698E-001
-3.8008991E-001	9.025777177952179E-001
-3.7899953E-001	9.031408637486127E-001
-3.7828082E-001	9.036116686960076E-001
-3.7725034E-001	9.044789135068196E-001
-3.7628454E-001	9.049489884464865E-001
-3.7500691E-001	9.055487470863839E-001
-3.7439787E-001	9.061662430564557E-001
-3.7307358E-001	9.069344968431525E-001
-3.7231612E-001	9.072218718163718E-001
-3.7119731E-001	9.077443112101822E-001
-3.6999625E-001	9.083824250157244E-001
-3.6930966E-001	9.092007680348466E-001
-3.6822411E-001	9.096989697880189E-001
-3.6732471E-001	9.105622364139130E-001
-3.6627230E-001	9.107797710533843E-001
-3.6525878E-001	9.114214450948808E-001
-3.6415744E-001	9.120204261055704E-001
-3.6356920E-001	9.124732661674391E-001
-3.6223894E-001	9.131207828996342E-001
-3.6111140E-001	9.133900533756165E-001
-3.5975832E-001	9.141271714535022E-001
-3.5915184E-001	9.149516498049088E-001
-3.5827383E-001	9.151821839332914E-001
-3.5759360E-001	9.158008893330898E-001
-3.5557261E-001	9.167251949784987E-001
-3.5527155E-001	9.170500939431587E-001
-3.5413337E-001	9.176298450264699E-001
-3.5333064E-001	9.181138787556602E-001
-3.5214466E-001	9.187638965948715E-001
-3.5105434E-001	9.194925245311509E-001
-3.5024077E-001	9.199587510967753E-001
-3.4960189E-001	9.209267224294635E-001
-3.4800220E-001	9.211630861240416E-001
-3.4740743E-001	9.216959119542416E-001
-3.4600714E-001	9.221485898726520E-001
-3.4526706E-001	9.226196140602791E-001
-3.4402037E-001	9.228721148213621E-001
-3.4314090E-001	9.237795709459942E-001
-3.4236193E-001	9.241630146624900E-001
-3.4146771E-001	9.247848737383304E-001
-3.4021291E-001	9.253588692733530E-001
-3.3956781E-001	9.256021660511138E-001
-3.3810425E-001	9.261732566131959E-001
-3.3748278E-001	9.268077741618486E-001
-3.3610582E-001	9.271604924006960E-001
-3.3521751E-001	9.278831779956835E-001
-3.3459491E-001	9.282786839262209E-001
-3.3325100E-001	9.289560603359472E-001
-3.3181816E-001	9.294456698828260E-001
-3.3100569E-001	9.299388304352760E-001
-3.3038160E-001	9.304017766859012E-001
-3.2945782E-001	9.307328924812674E-001
-3.2837322E-001	9.315973880390374E-001
-3.2723963E-001	9.318935164566069E-001
-3.2571736E-001	9.322551695836943E-001
-3.2522565E-001	9.330606871732972E-001
-3.2409543E-001	9.335088209517561E-001
-3.2325354E-001	9.340005253476136E-001
-3.2221907E-001	9.345149514607316E-001
-3.2109195E-001	9.350230731070019E-001
-3.2028398E-001	9.357678089980723E-001
-3.1965598E-001	9.359062140008643E-001
-3.1816652E-001	9.366616552902589E-001
-3.1698897E-001	9.372286916606987E-001
-3.1620473E-001	9.375548793161013E-001
-3.1496337E-001	9.381894418210917E-001
-3.1468356E-001	9.385490967995604E-001
-3.1314355E-001	9.390733471574180E-001
-3.1255639E-001	9.396137520670882E-001
-3.1103140E-001	9.401494428627988E-001
-3.1010908E-001	9.407038167119053E-001
-3.0899283E-001	9.412117514897229E-001
-3.0865127E-001	9.415868312070632E-001
-3.0710194E-001	9.419317377938210E-001
-3.0626044E-001	9.424073509871960E-001
-3.0538633E-001	9.429149199173157E-001
-3.0437824E-001	9.434135869421336E-001
-3.0315551E-001	9.439272229318290E-001
-3.0231240E-001	9.445243859129384E-001
-3.0105439E-001	9.450769660373552E-001
-3.0008328E-001	9.454555941952609E-001
-2.9908034E-001	9.461190890512281E-001
-2.9808629E-001	9.464135399019256E-001
-2.9730591E-001	9.465544492859763E-001
-2.9601744E-001	9.464446692555057E-001
-2.9515305E-001	9.475143228968026E-001
-2.9428089E-001	9.482023565585713E-001
-2.9360616E-001	9.481844686799548E-001
-2.9201609E-001	9.486800763342131E-001
-2.9145315E-001	9.492043751228492E-001
-2.9037187E-001	9.494216798080402E-001
-2.8926140E-001	9.504571523931313E-001
-2.8795773E-001	9.504968112878203E-001
-2.8732702E-001	9.509288544456149E-001
-2.8604788E-001	9.513574532336690E-001
-2.8565267E-001	9.521185955311644E-001
-2.8410563E-001	9.526938415235993E-001
-2.8320396E-001	9.527472038378626E-001
-2.8252017E-001	9.533721590759559E-001
-2.8131402E-001	9.541842824331015E-001
-2.8016970E-001	9.543463574188931E-001
-2.7891299E-001	9.547969658893600E-001
-2.7857268E-001	9.553080857903860E-001
-2.7746674E-001	9.557928411540007E-001
-2.7632821E-001	9.562543743738461E-001
-2.7582017E-001	9.564294569470277E-001
-2.7422389E-001	9.567055623386924E-001
-2.7304128E-001	9.573908954582837E-001
-2.7207604E-001	9.582261691329688E-001
-2.7123180E-001	9.584887222283385E-001
-2.7034619E-001	9.591515479540345E-001
-2.6934043E-001	9.595914729386088E-001
-2.6818568E-001	9.601456728522475E-001
-2.6728988E-001	9.604466814133836E-001
-2.6621354E-001	9.608513908845246E-001
-2.6505509E-001	9.612031903255911E-001
-2.6423734E-001	9.613739141711477E-001
-2.6331222E-001	9.618902396378139E-001
-2.6226476E-001	9.622376919896496E-001
-2.6140714E-001	9.625366257020760E-001
-2.6048291E-001	9.628418408538195E-001
-2.5932321E-001	9.638837378610070E-001
-2.5793374E-001	9.642431808472116E-001
-2.5725988E-001	9.644443594195202E-001
-2.5641474E-001	9.648542175138406E-001
-2.5547710E-001	9.652839517925766E-001
-2.5435221E-001	9.655511231610046E-001
-2.5310403E-001	9.662101910346115E-001
-2.5209069E-001	9.664321396332607E-001
-2.5127530E-001	9.670740822675050E-001
-2.5028339E-001	9.677267402962393E-001
-2.4926625E-001	9.679167635430055E-001
-2.4803211E-001	9.684487750960749E-001
-2.4756666E-001	9.688997517029456E-001
-2.4635011E-001	9.691201460078305E-001
-2.4529499E-001	9.695698911393080E-001
-2.4441753E-001	9.700231288715546E-001
-2.4358971E-001	9.701340706260044E-001
-2.4204817E-001	9.705409382780392E-001
-2.4114628E-001	9.714818914645669E-001
-2.4041796E-001	9.723222517856840E-001
-2.3915748E-001	9.728639982640797E-001
-2.3847407E-001	9.731142412658214E-001
-2.3725134E-001	9.734340456348827E-001
-2.3593998E-001	9.739770163540449E-001
-2.3531841E-001	9.741155262728061E-001
-2.3409809E-001	9.744637405706733E-001
-2.3301020E-001	9.746329518114578E-001
-2.3240635E-001	9.749721483223990E-001
-2.3108523E-001	9.752626711571679E-001
-2.3039943E-001	9.753154870841119E-001
-2.2923739E-001	9.760282409411936E-001
-2.2858085E-001	9.761559380977273E-001
-2.2726378E-001	9.767158753598286E-001
-2.2614180E-001	9.769749696607963E-001
-2.2547635E-001	9.774703153029609E-001
-2.2448598E-001	9.780075397522925E-001
-2.2308928E-001	9.777831108205817E-001
-2.2190732E-001	9.784481155651577E-001
-2.2155987E-001	9.794373153503422E-001
-2.2030319E-001	9.796904342042091E-001
-2.1906343E-001	9.801304777346154E-001
-2.1783063E-001	9.802042553546251E-001
-2.1753855E-001	9.804764010564089E-001
-2.1623261E-001	9.809839316996687E-001
-2.1522871E-001	9.811385638184014E-001
-2.1405160E-001	9.814484667170946E-001
-2.1326013E-001	9.817374574971574E-001
-2.1226294E-001	9.823163783660682E-001
-2.1134572E-001	9.825252071023005E-001
-2.1060115E-001	9.830603155898370E-001
-2.0930843E-001	9.834127755904625E-001
-2.0851085E-001	9.837420793871132E-001
-2.0750067E-001	9.841239729809210E-001
-2.0642921E-001	9.844207963733709E-001
-2.0517807E-001	9.851199021648114E-001
-2.0414971E-001	9.850001709052805E-001
-2.0321487E-001	9.856848358004129E-001
-2.0211597E-001	9.853037753630911E-001
-2.0152655E-001	9.860364171089924E-001
-2.0038784E-001	9.865687768216453E-001
-1.9911806E-001	9.870714294194194E-001
-1.9820653E-001	9.875058192345829E-001
-1.9702031E-001	9.879169033633328E-001
-1.9614910E-001	9.880323466500962E-001
-1.9543827E-001	9.883141149249415E-001
-1.9455582E-001	9.889859720586713E-001
-1.9326968E-001	9.893490461011716E-001
-1.9223833E-001	9.897670293295828E-001
-1.9138125E-001	9.895769684569142E-001
-1.9019045E-001	9.901819197392026E-001
-1.8925008E-001	9.908148428356256E-001
-1.8846467E-001	9.914564275135085E-001
-1.8743321E-001	9.917801222591436E-001
-1.8632381E-001	9.919308498501804E-001
-1.8522108E-001	9.924113478949650E-001
-1.8432343E-001	9.927233228528944E-001
-1.8321635E-001	9.928347994056002E-001
-1.8249138E-001	9.931021693685480E-001
-1.8103863E-001	9.934827293510811E-001
-1.8033107E-001	9.936208709191094E-001
-1.7917340E-001	9.943295991807055E-001
-1.7853299E-001	9.942020417915440E-001
-1.7722876E-001	9.948031493550928E-001
-1.7610221E-001	9.947408574322880E-001
-1.7502823E-001	9.954433352858949E-001
-1.7407338E-001	9.954934806821560E-001
-1.7321283E-001	9.961751591828101E-001
-1.7241374E-001	9.966183409646705E-001
-1.7104504E-001	9.967845059760081E-001
-1.7038114E-001	9.972433046334288E-001
-1.6926576E-001	9.968288873356812E-001
-1.6861497E-001	9.972121992512903E-001
-1.6717058E-001	9.979876446779183E-001
-1.6592291E-001	9.987543559161249E-001
-1.6536772E-001	9.986519383059598E-001
-1.6448653E-001	9.993069022893888E-001
-1.6342379E-001	9.994563403782286E-001
-1.6241999E-001	1.000029175093882E+000
-1.6096480E-001	1.000120881530974E+000
-1.6029032E-001	1.000359174685277E+000
-1.5940927E-001	1.000836030200675E+000
-1.5871605E-001	1.001376550230717E+000
-1.5724076E-001	1.001541635111805E+000
-1.5623032E-001	1.001836867382126E+000
-1.5549715E-001	1.002549375928567E+000
-1.5390287E-001	1.002900002455267E+000
-1.5317336E-001	1.003328763086483E+000
-1.5260008E-001	1.003826051195805E+000
-1.5143944E-001	1.004183198290844E+000
-1.5007015E-001	1.004333505337990E+000
-1.4951688E-001	1.004712063778165E+000
-1.4832965E-001	1.005155653589297E+000
-1.4727071E-001	1.005359031397992E+000
-1.4600492E-001	1.005725055698043E+000
-1.4545086E-001	1.005621181318056E+000
-1.4423156E-001	1.006285796286884E+000
-1.4343248E-001	1.006448750856683E+000
-1.4248341E-001	1.006497128556171E+000
-1.4101313E-001	1.006558204259658E+000
-1.4036745E-001	1.007267021056682E+000
-1.3957620E-001	1.007159209775704E+000
-1.3828406E-001	1.007493118619196E+000
-1.3743755E-001	1.007758777312663E+000
-1.3613954E-001	1.008270287541327E+000
-1.3527067E-001	1.008568136674963E+000
-1.3403904E-001	1.008875820785761E+000
-1.3330595E-001	1.009286381856159E+000
-1.3259882E-001	1.009599663808524E+000
-1.3111213E-001	1.010164475275406E+000
-1.3021928E-001	1.010099189562927E+000
-1.2934403E-001	1.010669441458781E+000
-1.2795798E-001	1.010713325468479E+000
-1.2691264E-001	1.011144051655546E+000
-1.2667270E-001	1.011340540040422E+000
-1.2537512E-001	1.011329439641148E+000
-1.2391214E-001	1.011849142958775E+000
-1.2334210E-001	1.012354242029015E+000
-1.2227487E-001	1.012651070814441E+000
-1.2148805E-001	1.013157124968302E+000
-1.2026668E-001	1.013168540679743E+000
-1.1934286E-001	1.013528025260680E+000
-1.1825535E-001	1.013866525826010E+000
-1.1731746E-001	1.013604756168744E+000
-1.1646397E-001	1.013721572867169E+000
-1.1561493E-001	1.014032488757809E+000
-1.1466036E-001	1.014650839346427E+000
-1.1331414E-001	1.015007359556460E+000
-1.1231995E-001	1.015722028773138E+000
-1.1110596E-001	1.015825401715657E+000
-1.1017762E-001	1.015916123130106E+000
-1.0920381E-001	1.015996229179478E+000
-1.0847324E-001	1.016347557030342E+000
-1.0733528E-001	1.016647254049946E+000
-1.0629638E-001	1.016929667443037E+000
-1.0514072E-001	1.017466558902350E+000
-1.0408156E-001	1.017522103646583E+000
-1.0283425E-001	1.017912651791617E+000
-1.0254504E-001	1.018205287896147E+000
-1.0113937E-001	1.019248484737345E+000
-9.9873796E-002	1.019227590963791E+000
-9.9299550E-002	1.019411122728503E+000
-9.8370679E-002	1.019589866477027E+000
-9.7284995E-002	1.019723269122622E+000
-9.6354410E-002	1.019470202795747E+000
-9.5352724E-002	1.019753208866821E+000
-9.4152093E-002	1.020194621273763E+000
-9.3221836E-002	1.020519585567845E+000
-9.1974385E-002	1.021046602615598E+000
-9.1319546E-002	1.021066706489634E+000
-9.0350769E-002	1.021438852702408E+000
-8.9080125E-002	1.021457696402514E+000
-8.8384666E-002	1.021872767967370E+000
-8.7728232E-002	1.022219175817787E+000
-8.6417288E-002	1.022447666360268E+000
-8.5089803E-002	1.022308120518630E+000
-8.4485024E-002	1.022893569673657E+000
-8.3332106E-002	1.023401479754183E+000
-8.2489327E-002	1.023318292868119E+000
-8.1127889E-002	1.023813147649719E+000
-8.0350868E-002	1.024115049590666E+000
-7.9265915E-002	1.024234082882767E+000
-7.8046314E-002	1.024529447296150E+000
-7.6949574E-002	1.024873228090440E+000
-7.6391295E-002	1.025377011133561E+000
-7.5183451E-002	1.025541200957920E+000
-7.4511267E-002	1.025740398727806E+000
-7.3342182E-002	1.025663476989227E+000
-7.2281331E-002	1.026059424435651E+000
-7.1245670E-002	1.026713169761990E+000
-7.0331670E-002	1.026933710056323E+000
-6.9048293E-002	1.027174019289241E+000
-6.7820363E-002	1.027894517765452E+000
-6.7463711E-002	1.027729375494848E+000
-6.6352159E-002	1.028126273028274E+000
-6.5291315E-002	1.028548498498498E+000
-6.4288162E-002	1.028578996382380E+000
-6.3416570E-002	1.028894285020918E+000
-6.2350795E-002	1.028755765408278E+000
-6.1507590E-002	1.029066809349592E+000
-6.0146455E-002	1.029060958424269E+000
-5.9498742E-002	1.029418108088001E+000
-5.8321439E-002	1.029626152719612E+000
-5.7212133E-002	1.029807824147385E+000
-5.6221582E-002	1.030022518778285E+000
-5.5332564E-002	1.030623879697583E+000
-5.4261986E-002	1.030442012663507E+000
-5.3089730E-002	1.030781943902923E+000
-5.2197319E-002	1.031019592174774E+000
-5.1137317E-002	1.031585017636107E+000
-5.0444294E-002	1.031446196966700E+000
-4.9161036E-002	1.031748425835585E+000
-4.8279960E-002	1.032064194342604E+000
-4.7222503E-002	1.032437115493750E+000
-4.6109710E-002	1.032581207423940E+000
-4.5203689E-002	1.032941786917270E+000
-4.4465058E-002	1.033219186934055E+000
-4.3289132E-002	1.033564570177385E+000
-4.2163476E-002	1.034104813166243E+000
-4.1591790E-002	1.033922999683352E+000
-4.0419824E-002	1.034308943053976E+000
-3.9156571E-002	1.034583666258392E+000
-3.8287345E-002	1.034884252324868E+000
-3.7329517E-002	1.035000820678695E+000
-3.6417793E-002	1.035434388728058E+000
-3.5417791E-002	1.035489826537146E+000
-3.4841470E-002	1.035557059640135E+000
-3.3721656E-002	1.035707857321810E+000
-3.2257371E-002	1.036076511207124E+000
-3.1328008E-002	1.035970797279370E+000
-3.0892085E-002	1.036165339251358E+000
-2.9309670E-002	1.036382583094989E+000
-2.8509682E-002	1.036898997922737E+000
-2.7686417E-002	1.037086705918668E+000
-2.6285527E-002	1.037275878301610E+000
-2.5032703E-002	1.037245047313196E+000
-2.4384061E-002	1.037731568471674E+000
-2.2895942E-002	1.038095745085563E+000
-2.2456415E-002	1.038646067596147E+000
-2.1356555E-002	1.038251917306987E+000
-2.0029465E-002	1.038887118023855E+000
-1.9095680E-002	1.038858410108971E+000
-1.8035494E-002	1.039536332791004E+000
-1.7278383E-002	1.039766546476775E+000
-1.6245112E-002	1.040544471393027E+000
-1.5377107E-002	1.040377497151900E+000
-1.4654156E-002	1.040973697961483E+000
-1.3579941E-002	1.041061012695234E+000
-1.2535640E-002	1.041253904585577E+000
-1.1315484E-002	1.041454074835335E+000
-1.0277335E-002	1.041465244278001E+000
-9.5236413E-003	1.041697521176600E+000
-8.3134547E-003	1.041916927115778E+000
-7.4991132E-003	1.041662701233006E+000
-6.4250971E-003	1.041836117980656E+000
-5.6349225E-003	1.041910635100472E+000
-4.2272103E-003	1.042344356166808E+000
-3.3008843E-003	1.042745706521802E+000
-2.0735150E-003	1.043037649657989E+000
-1.4317131E-003	1.043056165073040E+000
-2.6958314E-004	1.043814681056475E+000
8.6597662E-004	1.043450237692721E+000
1.8881761E-003	1.044244202060838E+000
2.7358367E-003	1.044708702299332E+000
3.6313424E-003	1.045038128733376E+000
4.9275365E-003	1.044932864468411E+000
5.7342565E-003	1.044892880099795E+000
6.4717825E-003	1.045601109801598E+000
7.2426968E-003	1.046009529720653E+000