EC-Lab ASCII FILE
Nb header lines : 63                          

Linear Sweep Voltammetry

Run on channel : 6 (SN 13765)
User : 
Electrode connection : standard
Potential control : Ewe
Ewe ctrl range : min = -2.50 V, max = 2.50 V
Ewe,I filtering : <None>
Safety Limits :
	Do not start on E overload
Channel : Floating
Acquisition started on : 07/17/2026 15:22:19.845
Technique started on : 07/17/2026 15:22:20.842
Loaded Setting File :  C:\Users\EEM-620\Desktop\Wade\abao\20260629\N719_0629-0-1_C06.mpr
Saved on :
	File : N719_0717-e-2_C06.mpr
	Directory : C:\Users\EEM-620\Desktop\Wade\abao\20260717\
	Host : 192.109.209.200
Device : VSP-300 (SN 0025)
Address : 192.109.209.129
EC-LAB for windows v11.62 (software)
Internet server v27.00 (firmware)
Command interpretor v12.02 (firmware)
Electrode material : Au/Pd
Initial state : 
Electrolyte : NaCl (0.2M)
Comments : Fe(CN)63-/Fe(CN)64- 5.10-3 M
Cable : ULC
Reference electrode : SCE Saturated Calomel Electrode (0.241 V)
Electrode surface area : 0.001 cm2
Characteristic mass : 0.001 g
Equivalent Weight : 0.000 g/eq.
Density : 0.000 g/cm3
Volume (V) : 0.001 cm3
Cycle Definition : Charge/Discharge alternance
tR (h:m:s)          0:00:5.0000         
dER/dt (mV/h)       0.0                 
dER (mV)            0                   
dtR (s)             0.0500              
dE/dt               10.000              
dE/dt unit          mV/s                
Ei (V)              -0.800              
vs.                 Ref                 
EL (V)              0.010               
vs.                 Ref                 
record              <I>                 
dI                  0.000               
unit dI             uA                  
tI (s)              0.0000              
step percent        50                  
N                   10                  
E range min (V)     -2.500              
E range max (V)     2.500               
I Range             Auto                
I Range min         Unset               
I Range max         Unset               
I Range init        Unset               
Bandwidth           8                   

Ewe/V	<I>/mA	
-4.8143771E-001	0.000000000000000E+000
-4.8207155E-001	0.000000000000000E+000
-4.8233500E-001	0.000000000000000E+000
-4.8092222E-001	0.000000000000000E+000
-4.8333156E-001	0.000000000000000E+000
-4.8255265E-001	0.000000000000000E+000
-4.8153698E-001	0.000000000000000E+000
-4.8239607E-001	0.000000000000000E+000
-4.8222429E-001	0.000000000000000E+000
-4.8255646E-001	0.000000000000000E+000
-4.8151788E-001	0.000000000000000E+000
-4.8204482E-001	0.000000000000000E+000
-4.8254883E-001	0.000000000000000E+000
-4.8184624E-001	0.000000000000000E+000
-4.8170498E-001	0.000000000000000E+000
-4.8172405E-001	0.000000000000000E+000
-4.8223954E-001	0.000000000000000E+000
-4.8154843E-001	0.000000000000000E+000
-4.8139188E-001	0.000000000000000E+000
-4.8239991E-001	0.000000000000000E+000
-4.8055184E-001	0.000000000000000E+000
-4.8276266E-001	0.000000000000000E+000
-4.8175082E-001	0.000000000000000E+000
-4.8238462E-001	0.000000000000000E+000
-4.8221663E-001	0.000000000000000E+000
-4.8275501E-001	0.000000000000000E+000
-4.8237318E-001	0.000000000000000E+000
-4.8207918E-001	0.000000000000000E+000
-4.8313683E-001	0.000000000000000E+000
-4.8229682E-001	0.000000000000000E+000
-4.8146823E-001	0.000000000000000E+000
-4.8306048E-001	0.000000000000000E+000
-4.8183480E-001	0.000000000000000E+000
-4.8133463E-001	0.000000000000000E+000
-4.8222044E-001	0.000000000000000E+000
-4.8272827E-001	0.000000000000000E+000
-4.8179662E-001	0.000000000000000E+000
-4.8140717E-001	0.000000000000000E+000
-4.8133078E-001	0.000000000000000E+000
-4.8214790E-001	0.000000000000000E+000
-4.8144153E-001	0.000000000000000E+000
-4.8178899E-001	0.000000000000000E+000
-4.8231208E-001	0.000000000000000E+000
-4.8323613E-001	0.000000000000000E+000
-4.8214406E-001	0.000000000000000E+000
-4.8179281E-001	0.000000000000000E+000
-4.8205245E-001	0.000000000000000E+000
-4.8260990E-001	0.000000000000000E+000
-4.8211735E-001	0.000000000000000E+000
-4.8212498E-001	0.000000000000000E+000
-4.8293447E-001	0.000000000000000E+000
-4.8179662E-001	0.000000000000000E+000
-4.8212498E-001	0.000000000000000E+000
-4.8206773E-001	0.000000000000000E+000
-4.8193789E-001	0.000000000000000E+000
-4.8159042E-001	0.000000000000000E+000
-4.8140714E-001	0.000000000000000E+000
-4.8232737E-001	0.000000000000000E+000
-4.8247245E-001	0.000000000000000E+000
-4.8176607E-001	0.000000000000000E+000
-4.8004785E-001	0.000000000000000E+000
-4.8563400E-001	0.000000000000000E+000
-4.8742095E-001	0.000000000000000E+000
-7.8813058E-001	-7.058478699790109E-001
-7.8899312E-001	-6.995234153474943E-001
-7.8794378E-001	-6.877266047177484E-001
-7.8700924E-001	-6.785047476413393E-001
-7.8614038E-001	-6.708921335499580E-001
-7.8502464E-001	-6.643344268064819E-001
-7.8407419E-001	-6.586224918752199E-001
-7.8280485E-001	-6.534871652170438E-001
-7.8229403E-001	-6.487176912250341E-001
-7.8079730E-001	-6.442991106205689E-001
-7.8031111E-001	-6.402473421422425E-001
-7.7942210E-001	-6.363439109452367E-001
-7.7795780E-001	-6.326315918616396E-001
-7.7730185E-001	-6.290653231381276E-001
-7.7604300E-001	-6.255164140136944E-001
-7.7543342E-001	-6.222050683227955E-001
-7.7417070E-001	-6.188569858808233E-001
-7.7287376E-001	-6.156916751320605E-001
-7.7190232E-001	-6.124954254676909E-001
-7.7088797E-001	-6.092750850237074E-001
-7.7032685E-001	-6.062280041277237E-001
-7.6897806E-001	-6.030740181880963E-001
-7.6784497E-001	-6.000488816450034E-001
-7.6697642E-001	-5.971662491844487E-001
-7.6651573E-001	-5.941502543649202E-001
-7.6456422E-001	-5.911889216276256E-001
-7.6428086E-001	-5.883312616287313E-001
-7.6310104E-001	-5.853241275720045E-001
-7.6183665E-001	-5.824914183002914E-001
-7.6118761E-001	-5.796903983034456E-001
-7.6076949E-001	-5.768223544237765E-001
-7.5911707E-001	-5.738785220011011E-001
-7.5819707E-001	-5.710892217854653E-001
-7.5665486E-001	-5.682944263573066E-001
-7.5604308E-001	-5.655793619400571E-001
-7.5520921E-001	-5.627509465924021E-001
-7.5399864E-001	-5.600064999113474E-001
-7.5315565E-001	-5.572999166455479E-001
-7.5232285E-001	-5.545739419068436E-001
-7.5126797E-001	-5.518318563626377E-001
-7.5004900E-001	-5.491251428784052E-001
-7.4941283E-001	-5.465026558549306E-001
-7.4841219E-001	-5.438509641701539E-001
-7.4708587E-001	-5.411101421686233E-001
-7.4662888E-001	-5.384867712855304E-001
-7.4512774E-001	-5.358669846207000E-001
-7.4410993E-001	-5.331966823173895E-001
-7.4308079E-001	-5.306318896926117E-001
-7.4220258E-001	-5.279252977691797E-001
-7.4100709E-001	-5.253396762741929E-001
-7.4024677E-001	-5.227336802830287E-001
-7.3913234E-001	-5.201910538253944E-001
-7.3822016E-001	-5.175675712525845E-001
-7.3736250E-001	-5.150061216558759E-001
-7.3593771E-001	-5.124680356433000E-001
-7.3526776E-001	-5.099221909487675E-001
-7.3422414E-001	-5.073775181177123E-001
-7.3327529E-001	-5.048488338512418E-001
-7.3205024E-001	-5.023563404188103E-001
-7.3123568E-001	-4.998593936144281E-001
-7.3020273E-001	-4.973070477997812E-001
-7.2919691E-001	-4.948879085067244E-001
-7.2805136E-001	-4.925153422516919E-001
-7.2704148E-001	-4.899539372849238E-001
-7.2604173E-001	-4.874410178788278E-001
-7.2523481E-001	-4.850078759543988E-001
-7.2414792E-001	-4.823762148066812E-001
-7.2326368E-001	-4.800330190165578E-001
-7.2245777E-001	-4.776404048143714E-001
-7.2108305E-001	-4.752702013485983E-001
-7.2032058E-001	-4.728381230249177E-001
-7.1958649E-001	-4.703900553975942E-001
-7.1777999E-001	-4.680404091184882E-001
-7.1721572E-001	-4.657618903043437E-001
-7.1620399E-001	-4.632485657930392E-001
-7.1502888E-001	-4.609673501302822E-001
-7.1440578E-001	-4.586842554891621E-001
-7.1308923E-001	-4.562414604480629E-001
-7.1224993E-001	-4.538870280044183E-001
-7.1102357E-001	-4.514614773431322E-001
-7.0994377E-001	-4.492171036286479E-001
-7.0873070E-001	-4.468564889722160E-001
-7.0809764E-001	-4.445006773565647E-001
-7.0684677E-001	-4.421960970179892E-001
-7.0600760E-001	-4.398936688720707E-001
-7.0497054E-001	-4.376569247494153E-001
-7.0408821E-001	-4.354246275292500E-001
-7.0316142E-001	-4.330606983217562E-001
-7.0162994E-001	-4.307899122574792E-001
-7.0119268E-001	-4.284840705632078E-001
-7.0039356E-001	-4.263202202642837E-001
-6.9942272E-001	-4.240543631215896E-001
-6.9770366E-001	-4.217138124971891E-001
-6.9721615E-001	-4.194334285954637E-001
-6.9604117E-001	-4.172427548716469E-001
-6.9469899E-001	-4.149870054442735E-001
-6.9403547E-001	-4.127804979819936E-001
-6.9330007E-001	-4.106143904780906E-001
-6.9224072E-001	-4.084109494017785E-001
-6.9151497E-001	-4.061780698183508E-001
-6.9030416E-001	-4.039930485326941E-001
-6.8931144E-001	-4.018255332137013E-001
-6.8760908E-001	-3.996012829658038E-001
-6.8739891E-001	-3.975530743677336E-001
-6.8642026E-001	-3.953000528530950E-001
-6.8512398E-001	-3.931473977173940E-001
-6.8405247E-001	-3.910409199873952E-001
-6.8305957E-001	-3.887749182198341E-001
-6.8209738E-001	-3.866207748996429E-001
-6.8130720E-001	-3.845414980003401E-001
-6.8018734E-001	-3.824680050903995E-001
-6.7938918E-001	-3.802699172110475E-001
-6.7842734E-001	-3.781122423521825E-001
-6.7708910E-001	-3.760333633119295E-001
-6.7614001E-001	-3.739152376850452E-001
-6.7523313E-001	-3.717574774514103E-001
-6.7422783E-001	-3.697197543871082E-001
-6.7305601E-001	-3.676561438244490E-001
-6.7230093E-001	-3.655534166911689E-001
-6.7132831E-001	-3.635205536459871E-001
-6.7011809E-001	-3.613656053786034E-001
-6.6923356E-001	-3.592754377535101E-001
-6.6812539E-001	-3.572634549259597E-001
-6.6732275E-001	-3.552148316619723E-001
-6.6625571E-001	-3.531391225686225E-001
-6.6534483E-001	-3.510487212420053E-001
-6.6396809E-001	-3.490313178380511E-001
-6.6325665E-001	-3.470236355162871E-001
-6.6215843E-001	-3.449911498637115E-001
-6.6114557E-001	-3.429626725860029E-001
-6.6008282E-001	-3.408355514553412E-001
-6.5916085E-001	-3.389451420745377E-001
-6.5813249E-001	-3.370130920989654E-001
-6.5658587E-001	-3.349722033297569E-001
-6.5626180E-001	-3.331107135066937E-001
-6.5509993E-001	-3.310714725887878E-001
-6.5410542E-001	-3.290046826349915E-001
-6.5311009E-001	-3.270479111457036E-001
-6.5226740E-001	-3.250994408089249E-001
-6.5141696E-001	-3.231875864719895E-001
-6.5018845E-001	-3.211556746092947E-001
-6.4968467E-001	-3.192160395836374E-001
-6.4804375E-001	-3.172558275292869E-001
-6.4732689E-001	-3.152615692850411E-001
-6.4610893E-001	-3.133250718453406E-001
-6.4538598E-001	-3.115494258337819E-001
-6.4395112E-001	-3.095698704322190E-001
-6.4308888E-001	-3.077161887453663E-001
-6.4248586E-001	-3.057504355113703E-001
-6.4151883E-001	-3.038939221037750E-001
-6.3981777E-001	-3.018509179560671E-001
-6.3913679E-001	-3.000152344666582E-001
-6.3801283E-001	-2.981493555492278E-001
-6.3697034E-001	-2.962884630800946E-001
-6.3595515E-001	-2.943405425295369E-001
-6.3557613E-001	-2.925065652708749E-001
-6.3418680E-001	-2.906222682511648E-001
-6.3326061E-001	-2.888098720599110E-001
-6.3204253E-001	-2.869603870160584E-001
-6.3101250E-001	-2.850541132398994E-001
-6.2987101E-001	-2.831496199661929E-001
-6.2939066E-001	-2.812555382994031E-001
-6.2863487E-001	-2.794570263563800E-001
-6.2688035E-001	-2.776551618827172E-001
-6.2623918E-001	-2.758063305583258E-001
-6.2542349E-001	-2.739265758924416E-001
-6.2404978E-001	-2.721152893715976E-001
-6.2311280E-001	-2.703033936451438E-001
-6.2220585E-001	-2.685812487733381E-001
-6.2165338E-001	-2.667273056382933E-001
-6.2017602E-001	-2.649093335667252E-001
-6.1919951E-001	-2.630992512115171E-001
-6.1837757E-001	-2.613122848517930E-001
-6.1736089E-001	-2.594998257439052E-001
-6.1598217E-001	-2.577163186269225E-001
-6.1554813E-001	-2.560294177383176E-001
-6.1410612E-001	-2.542119232302751E-001
-6.1322707E-001	-2.524113621286768E-001
-6.1204040E-001	-2.506162154108833E-001
-6.1086172E-001	-2.489024951983625E-001
-6.1039692E-001	-2.471370641487072E-001
-6.0930431E-001	-2.453917609423986E-001
-6.0831714E-001	-2.436453014681188E-001
-6.0686839E-001	-2.419033316481449E-001
-6.0565573E-001	-2.401445040306203E-001
-6.0519528E-001	-2.383916711227765E-001
-6.0451478E-001	-2.367658858980848E-001
-6.0290742E-001	-2.350006608856350E-001
-6.0226816E-001	-2.333512063379644E-001
-6.0115039E-001	-2.316743830494863E-001
-6.0036868E-001	-2.298919440694944E-001
-5.9924531E-001	-2.281027812924643E-001
-5.9799564E-001	-2.264658134016724E-001
-5.9720159E-001	-2.247671616497228E-001
-5.9600741E-001	-2.231269221132002E-001
-5.9522492E-001	-2.213846694697073E-001
-5.9339017E-001	-2.196544905503588E-001
-5.9331530E-001	-2.180039978206709E-001
-5.9219146E-001	-2.163489446031828E-001
-5.9124595E-001	-2.147298319679162E-001
-5.9037775E-001	-2.131762218972043E-001
-5.8926779E-001	-2.115340277002846E-001
-5.8837503E-001	-2.098476966429086E-001
-5.8734369E-001	-2.080921599710432E-001
-5.8617258E-001	-2.064793657262332E-001
-5.8555925E-001	-2.047784079073205E-001
-5.8443207E-001	-2.032088850176441E-001
-5.8309180E-001	-2.015946807651727E-001
-5.8208084E-001	-2.000048703134611E-001
-5.8093369E-001	-1.984724343280377E-001
-5.8021498E-001	-1.967458499043628E-001
-5.7921207E-001	-1.951687109346194E-001
-5.7796890E-001	-1.935560161238592E-001
-5.7731366E-001	-1.919121950416383E-001
-5.7638222E-001	-1.902487283158629E-001
-5.7552963E-001	-1.886397063860992E-001
-5.7406729E-001	-1.870941156521440E-001
-5.7343030E-001	-1.855818939015818E-001
-5.7267112E-001	-1.839065141635288E-001
-5.7133275E-001	-1.823523317429203E-001
-5.6976640E-001	-1.808376412268800E-001
-5.6924438E-001	-1.791985131351765E-001
-5.6790537E-001	-1.776448807472153E-001
-5.6703770E-001	-1.761402627100289E-001
-5.6645364E-001	-1.745249650061682E-001
-5.6549519E-001	-1.730235834364537E-001
-5.6422281E-001	-1.714167588883621E-001
-5.6307715E-001	-1.699255135048321E-001
-5.6261325E-001	-1.683994725829474E-001
-5.6099820E-001	-1.669369288487363E-001
-5.6002468E-001	-1.653860317784597E-001
-5.5950540E-001	-1.637908224085408E-001
-5.5831259E-001	-1.622911548240468E-001
-5.5688268E-001	-1.608238717955017E-001
-5.5629438E-001	-1.592769795151670E-001
-5.5535936E-001	-1.578357383884768E-001
-5.5483818E-001	-1.563378412931880E-001
-5.5349630E-001	-1.548561326048830E-001
-5.5258369E-001	-1.532807250990085E-001
-5.5161381E-001	-1.518159188778585E-001
-5.4996419E-001	-1.502950539223429E-001
-5.4886204E-001	-1.487920240464584E-001
-5.4799294E-001	-1.473606536854746E-001
-5.4731852E-001	-1.459212911939535E-001
-5.4635650E-001	-1.444379820281435E-001
-5.4572237E-001	-1.429700451661593E-001
-5.4418492E-001	-1.415492173339779E-001
-5.4345006E-001	-1.400148375994634E-001
-5.4231364E-001	-1.386685556957610E-001
-5.4148602E-001	-1.371850499503866E-001
-5.4026496E-001	-1.356942488777420E-001
-5.3916925E-001	-1.342717875938124E-001
-5.3849012E-001	-1.328775426200419E-001
-5.3678519E-001	-1.314443495400529E-001
-5.3608626E-001	-1.300536266420360E-001
-5.3553945E-001	-1.285339331392339E-001
-5.3435791E-001	-1.271375459101471E-001
-5.3315514E-001	-1.257027828570995E-001
-5.3252429E-001	-1.243280305665121E-001
-5.3115535E-001	-1.228870187791009E-001
-5.2987051E-001	-1.214808495370332E-001
-5.2942848E-001	-1.201154107089948E-001
-5.2819133E-001	-1.187456347135041E-001
-5.2721131E-001	-1.172802860814111E-001
-5.2673763E-001	-1.159626061993619E-001
-5.2517062E-001	-1.145269452799811E-001
-5.2453297E-001	-1.131078277852526E-001
-5.2316618E-001	-1.117518811348686E-001
-5.2218384E-001	-1.103672203787323E-001
-5.2123225E-001	-1.090425338113201E-001
-5.2048117E-001	-1.077137768648011E-001
-5.1944602E-001	-1.063598644030066E-001
-5.1831508E-001	-1.050189237144812E-001
-5.1729316E-001	-1.035829009395186E-001
-5.1614076E-001	-1.022892692126334E-001
-5.1514250E-001	-1.009528754037565E-001
-5.1402217E-001	-9.964581637130654E-002
-5.1357317E-001	-9.828581014234106E-002
-5.1223618E-001	-9.695997658289135E-002
-5.1097322E-001	-9.569805919565366E-002
-5.1005846E-001	-9.432371049532995E-002
-5.0937206E-001	-9.297958009496873E-002
-5.0816733E-001	-9.164543746342657E-002
-5.0732458E-001	-9.038111775320146E-002
-5.0636262E-001	-8.904625758251394E-002
-5.0534862E-001	-8.776079291581296E-002
-5.0431210E-001	-8.646301739780182E-002
-5.0321460E-001	-8.502117737210946E-002
-5.0229013E-001	-8.381901527927449E-002
-5.0150508E-001	-8.250632297454596E-002
-5.0022215E-001	-8.126867557184550E-002
-4.9947158E-001	-7.994239804921319E-002
-4.9856094E-001	-7.862526199056055E-002
-4.9702692E-001	-7.743748118655158E-002
-4.9624383E-001	-7.616931883859657E-002
-4.9522287E-001	-7.487660553306319E-002
-4.9432573E-001	-7.361706408513385E-002
-4.9361706E-001	-7.226737706783992E-002
-4.9202606E-001	-7.101982303748566E-002
-4.9172804E-001	-6.979706748043746E-002
-4.9047717E-001	-6.862928082787056E-002
-4.8929271E-001	-6.741108803560347E-002
-4.8858523E-001	-6.614242356132605E-002
-4.8753691E-001	-6.483388077295227E-002
-4.8636717E-001	-6.355458649006973E-002
-4.8511627E-001	-6.241172945333864E-002
-4.8440120E-001	-6.114321340013418E-002
-4.8294160E-001	-5.987591080613086E-002
-4.8201457E-001	-5.875982467464502E-002
-4.8158476E-001	-5.751737634892801E-002
-4.8033896E-001	-5.623840610046765E-002
-4.7977197E-001	-5.507133751935145E-002
-4.7847673E-001	-5.383888791142377E-002
-4.7715390E-001	-5.276118602638157E-002
-4.7643411E-001	-5.150910782524271E-002
-4.7555071E-001	-5.025551607038681E-002
-4.7428334E-001	-4.904532257502014E-002
-4.7328067E-001	-4.794465990616392E-002
-4.7200397E-001	-4.659708444194011E-002
-4.7150770E-001	-4.546333657991575E-002
-4.7033280E-001	-4.410642382350741E-002
-4.6921948E-001	-4.286172359112506E-002
-4.6786463E-001	-4.169141829307013E-002
-4.6712825E-001	-4.053869894295992E-002
-4.6617925E-001	-3.939389518065439E-002
-4.6527129E-001	-3.819087869918858E-002
-4.6411407E-001	-3.694475702825517E-002
-4.6310914E-001	-3.587529189556993E-002
-4.6172523E-001	-3.462380169097468E-002
-4.6127111E-001	-3.346723357734765E-002
-4.6000591E-001	-3.229496268883211E-002
-4.5895422E-001	-3.121575702378430E-002
-4.5785114E-001	-2.998976640203804E-002
-4.5714432E-001	-2.889918773521283E-002
-4.5596015E-001	-2.775860648980466E-002
-4.5485550E-001	-2.664332989068627E-002
-4.5401612E-001	-2.544919854564659E-002
-4.5315114E-001	-2.429330807512831E-002
-4.5172149E-001	-2.318008917952974E-002
-4.5094618E-001	-2.201849689569202E-002
-4.5005018E-001	-2.090803375525377E-002
-4.4881618E-001	-1.986470451811331E-002
-4.4823790E-001	-1.867389442675094E-002
-4.4681966E-001	-1.761829309858122E-002
-4.4606680E-001	-1.648303654251820E-002
-4.4510078E-001	-1.534117548317671E-002
-4.4388658E-001	-1.428081670396585E-002
-4.4307476E-001	-1.309898696598356E-002
-4.4225106E-001	-1.208211528346062E-002
-4.4084910E-001	-1.095694774347875E-002
-4.4006252E-001	-9.787798159609173E-003
-4.3904328E-001	-8.777735688810830E-003
-4.3792197E-001	-7.701608612141753E-003
-4.3719840E-001	-6.653363557739406E-003
-4.3628794E-001	-5.481622007238951E-003
-4.3446752E-001	-4.112746298738409E-003
-4.3360341E-001	-2.906643835209423E-003
-4.3289649E-001	-1.893935186402546E-003
-4.3164748E-001	-7.747088495172541E-004
-4.3085980E-001	3.203692075625843E-004
-4.2977843E-001	1.372179139623229E-003
-4.2826718E-001	2.460038355989291E-003
-4.2750907E-001	3.481331094307909E-003
-4.2655069E-001	4.664674817899200E-003
-4.2581627E-001	5.717229556197435E-003
-4.2432159E-001	6.771974280028244E-003
-4.2372259E-001	7.766342494438444E-003
-4.2289329E-001	8.830315708725139E-003
-4.2149565E-001	9.944137369058359E-003
-4.2092487E-001	1.098068204987379E-002
-4.1907078E-001	1.217253525772369E-002
-4.1839841E-001	1.319296515753701E-002
-4.1756436E-001	1.424629089457014E-002
-4.1620031E-001	1.531927134226832E-002
-4.1584396E-001	1.629783464078272E-002
-4.1431308E-001	1.734686815781931E-002
-4.1331819E-001	1.834862244194713E-002
-4.1242066E-001	1.941658683224684E-002
-4.1159910E-001	2.039541060770350E-002
-4.1015917E-001	2.137153566150957E-002
-4.0885586E-001	2.251479394423462E-002
-4.0851822E-001	2.347961468869572E-002
-4.0726215E-001	2.449747020189000E-002
-4.0626985E-001	2.549848815046790E-002
-4.0544003E-001	2.655846310368459E-002
-4.0427902E-001	2.749719868276138E-002
-4.0314773E-001	2.855173535041369E-002
-4.0226778E-001	2.946903343173757E-002
-4.0114376E-001	3.056976288401825E-002
-4.0029386E-001	3.157625266839975E-002
-3.9915335E-001	3.254198715418427E-002
-3.9830062E-001	3.358194682126264E-002
-3.9729452E-001	3.454144699799463E-002
-3.9658132E-001	3.549564540972572E-002
-3.9531785E-001	3.650844036342787E-002
-3.9462802E-001	3.742698830462532E-002
-3.9312595E-001	3.849594765429010E-002
-3.9243400E-001	3.936160103141995E-002
-3.9134708E-001	4.034347822480416E-002
-3.9047268E-001	4.130522870130968E-002
-3.8937023E-001	4.233352795536460E-002
-3.8826573E-001	4.335423291270191E-002
-3.8739955E-001	4.415831714437367E-002
-3.8641191E-001	4.511336487201945E-002
-3.8534981E-001	4.612590338068970E-002
-3.8458103E-001	4.716046649479733E-002
-3.8337052E-001	4.809173254587873E-002
-3.8239741E-001	4.905318168285150E-002
-3.8128221E-001	4.998432140348963E-002
-3.8041630E-001	5.101405854948304E-002
-3.7969744E-001	5.188377656870435E-002
-3.7807804E-001	5.285500955802402E-002
-3.7761250E-001	5.380366422440830E-002
-3.7609935E-001	5.480344737535003E-002
-3.7511066E-001	5.573556803304835E-002
-3.7433064E-001	5.667824174604419E-002
-3.7325090E-001	5.755086425105449E-002
-3.7220654E-001	5.850740767056939E-002
-3.7120283E-001	5.942789532451170E-002
-3.7006006E-001	6.032528416943506E-002
-3.6932018E-001	6.122552316057878E-002
-3.6827606E-001	6.221123110433990E-002
-3.6736730E-001	6.313844737424332E-002
-3.6600283E-001	6.406473211053043E-002
-3.6544502E-001	6.497283963728018E-002
-3.6442897E-001	6.583397835493079E-002
-3.6338082E-001	6.676831893155855E-002
-3.6265787E-001	6.774738618103715E-002
-3.6143643E-001	6.863228175870595E-002
-3.6001098E-001	6.952099006243651E-002
-3.5910559E-001	7.043039046779841E-002
-3.5866681E-001	7.132150197277742E-002
-3.5721257E-001	7.224596926459559E-002
-3.5597163E-001	7.315318319187689E-002
-3.5554802E-001	7.403772411544407E-002
-3.5420904E-001	7.495247542478711E-002
-3.5339683E-001	7.586171487518764E-002
-3.5237771E-001	7.673756686615513E-002
-3.5100105E-001	7.772330115376808E-002
-3.5057408E-001	7.857486742755626E-002
-3.4966934E-001	7.944594135240757E-002
-3.4811443E-001	8.034550253715766E-002
-3.4765655E-001	8.128028295960699E-002
-3.4622097E-001	8.213474104801799E-002
-3.4568623E-001	8.300574332544630E-002
-3.4436309E-001	8.382405465531761E-002
-3.4328598E-001	8.469250231670822E-002
-3.4226796E-001	8.559832701252584E-002
-3.4149936E-001	8.649801281940483E-002
-3.4030622E-001	8.733875753737452E-002
-3.3920082E-001	8.829784755491543E-002
-3.3849254E-001	8.919726580811949E-002
-3.3742875E-001	9.003951876527716E-002
-3.3638951E-001	9.089141087261643E-002
-3.3550727E-001	9.175074397737792E-002
-3.3420479E-001	9.260964883422362E-002
-3.3354315E-001	9.350150541498370E-002
-3.3232409E-001	9.436244079498213E-002
-3.3104539E-001	9.521513004545823E-002
-3.3028132E-001	9.608821281330915E-002
-3.2972449E-001	9.689907399351094E-002
-3.2806754E-001	9.777340696503711E-002
-3.2731897E-001	9.861595079217789E-002
-3.2623369E-001	9.953083403201513E-002
-3.2533640E-001	1.002886659741675E-001
-3.2437617E-001	1.011440147841048E-001
-3.2362497E-001	1.020451905550777E-001
-3.2205278E-001	1.028976633863019E-001
-3.2107416E-001	1.037618077049651E-001
-3.2052431E-001	1.045553135789101E-001
-3.1921530E-001	1.054561996757124E-001
-3.1850231E-001	1.062746000890096E-001
-3.1745607E-001	1.070939238804082E-001
-3.1641001E-001	1.080209216780865E-001
-3.1540927E-001	1.088383989236146E-001
-3.1474894E-001	1.097042097338484E-001
-3.1326380E-001	1.106954746881136E-001
-3.1206021E-001	1.115307701682604E-001
-3.1133386E-001	1.124113322605576E-001
-3.0997118E-001	1.132353053393742E-001
-3.0932862E-001	1.140186202505398E-001
-3.0792552E-001	1.148731736213777E-001
-3.0744517E-001	1.156087057251065E-001
-3.0584106E-001	1.164667833148056E-001
-3.0492145E-001	1.173481555155649E-001
-3.0406469E-001	1.181128053167078E-001
-3.0340499E-001	1.189932912864068E-001
-3.0200765E-001	1.197622761552606E-001
-3.0138594E-001	1.205178726878433E-001
-3.0047971E-001	1.214200208712384E-001
-2.9919595E-001	1.222020455601596E-001
-2.9864380E-001	1.230166921116135E-001
-2.9705772E-001	1.238495942433745E-001
-2.9578960E-001	1.246147533464764E-001
-2.9533973E-001	1.254282345719364E-001
-2.9416028E-001	1.262215411010568E-001
-2.9330239E-001	1.269850980628418E-001
-2.9201928E-001	1.277317131903990E-001
-2.9116812E-001	1.285478890403366E-001
-2.8988314E-001	1.295029525300142E-001
-2.8943595E-001	1.301887162478159E-001
-2.8811970E-001	1.310679461175637E-001
-2.8720352E-001	1.318772729244769E-001
-2.8624907E-001	1.326887032505846E-001
-2.8525114E-001	1.334087525804835E-001
-2.8437591E-001	1.342779380890236E-001
-2.8344792E-001	1.350084044687847E-001
-2.8201681E-001	1.358110772928708E-001
-2.8143620E-001	1.365551503409667E-001
-2.8047433E-001	1.372352090425616E-001
-2.7939406E-001	1.379470047368498E-001
-2.7875131E-001	1.388341308295464E-001
-2.7725968E-001	1.395728756192933E-001
-2.7596229E-001	1.404986994996390E-001
-2.7517828E-001	1.412324201781168E-001
-2.7387601E-001	1.419531540358785E-001
-2.7300540E-001	1.427959159913437E-001
-2.7209014E-001	1.434426424444804E-001
-2.7082029E-001	1.442168775290531E-001
-2.7002060E-001	1.450410780186457E-001
-2.6930621E-001	1.458427947991736E-001
-2.6824272E-001	1.465950760369504E-001
-2.6691249E-001	1.474399164457014E-001
-2.6618001E-001	1.482056546993578E-001
-2.6512131E-001	1.489401613017204E-001
-2.6415694E-001	1.497783994440125E-001
-2.6321280E-001	1.504792285359711E-001
-2.6228982E-001	1.512741106217379E-001
-2.6140973E-001	1.519959707485021E-001
-2.5992543E-001	1.526829006874728E-001
-2.5877526E-001	1.536197088727798E-001
-2.5810283E-001	1.542520240473313E-001
-2.5703624E-001	1.551767412262663E-001
-2.5623399E-001	1.559180423306916E-001
-2.5519544E-001	1.566638631894316E-001
-2.5392538E-001	1.574194771065200E-001
-2.5260532E-001	1.581710777762861E-001
-2.5229880E-001	1.589572688992487E-001
-2.5115079E-001	1.596886186550059E-001
-2.5005388E-001	1.602813051841050E-001
-2.4908254E-001	1.611344182770851E-001
-2.4809295E-001	1.618793353231416E-001
-2.4693096E-001	1.627035629334799E-001
-2.4619591E-001	1.633452922623193E-001
-2.4509858E-001	1.640892746961782E-001
-2.4376480E-001	1.649465529226597E-001
-2.4320596E-001	1.656306516034176E-001
-2.4193238E-001	1.663364600390200E-001
-2.4112986E-001	1.670456846580684E-001
-2.4043898E-001	1.678519811550225E-001
-2.3914945E-001	1.687109125605608E-001
-2.3829554E-001	1.692427355112938E-001
-2.3690748E-001	1.701140660206204E-001
-2.3657967E-001	1.708790326374294E-001
-2.3519306E-001	1.714702268062094E-001
-2.3429111E-001	1.720299572787357E-001
-2.3300768E-001	1.729108063775073E-001
-2.3204912E-001	1.735620027994393E-001
-2.3103878E-001	1.743668005111866E-001
-2.3000591E-001	1.752138693177052E-001
-2.2922847E-001	1.758106515777332E-001
-2.2791286E-001	1.765583400718045E-001
-2.2699963E-001	1.772858294705886E-001
-2.2609112E-001	1.780000071524190E-001
-2.2547996E-001	1.787887013310363E-001
-2.2370046E-001	1.793885574643355E-001
-2.2332856E-001	1.802165919604402E-001
-2.2280407E-001	1.809044993944537E-001
-2.2095741E-001	1.816447358578450E-001
-2.2006881E-001	1.823576925046471E-001
-2.1936408E-001	1.830157500561457E-001
-2.1828820E-001	1.837108414792632E-001
-2.1726280E-001	1.844694717200817E-001
-2.1599238E-001	1.852895574998503E-001
-2.1531801E-001	1.859604870486592E-001
-2.1435623E-001	1.866386934114552E-001
-2.1333423E-001	1.873181805118675E-001
-2.1230644E-001	1.881269871740141E-001
-2.1086140E-001	1.886962822776430E-001
-2.1014401E-001	1.893675174255182E-001
-2.0903160E-001	1.900344009649142E-001
-2.0801914E-001	1.908323232193991E-001
-2.0734604E-001	1.915620782723035E-001
-2.0598227E-001	1.921738739884282E-001
-2.0543772E-001	1.929563818795725E-001
-2.0415141E-001	1.936668256228726E-001
-2.0346029E-001	1.943714866173218E-001
-2.0213696E-001	1.949597532359180E-001
-2.0076096E-001	1.956970184627504E-001
-1.9986196E-001	1.964765255235958E-001
-1.9897094E-001	1.971874741211139E-001
-1.9854255E-001	1.978282402097076E-001
-1.9734786E-001	1.985573111930048E-001
-1.9616522E-001	1.992151824136572E-001
-1.9543490E-001	1.998485527863645E-001
-1.9426078E-001	2.005276846116867E-001
-1.9258113E-001	2.012530049240144E-001
-1.9231744E-001	2.019876242028897E-001
-1.9137348E-001	2.026392511809355E-001
-1.8992381E-001	2.032185800511530E-001
-1.8916801E-001	2.038533160187033E-001
-1.8822324E-001	2.045684530296352E-001
-1.8723869E-001	2.053371276016582E-001
-1.8608154E-001	2.059621908874423E-001
-1.8530720E-001	2.066059368738142E-001
-1.8401563E-001	2.073024441315621E-001
-1.8321358E-001	2.079362296493450E-001
-1.8193613E-001	2.084656867578079E-001
-1.8120515E-001	2.092641397482820E-001
-1.8043339E-001	2.099566985797852E-001
-1.7882234E-001	2.105902200564742E-001
-1.7805527E-001	2.112862555724053E-001
-1.7724463E-001	2.119461235644597E-001
-1.7618155E-001	2.126322628033379E-001
-1.7514955E-001	2.133181558370042E-001
-1.7398858E-001	2.139074040922160E-001
-1.7332144E-001	2.146724976116303E-001
-1.7209852E-001	2.153366425730008E-001
-1.7096640E-001	2.159101563474346E-001
-1.6978271E-001	2.166265479668423E-001
-1.6907801E-001	2.172519368926107E-001
-1.6855472E-001	2.179600918251610E-001
-1.6669139E-001	2.186117382996056E-001
-1.6649994E-001	2.192617813261125E-001
-1.6527523E-001	2.198912502025012E-001
-1.6385418E-001	2.205719268639337E-001
-1.6346438E-001	2.211693971306651E-001
-1.6211474E-001	2.217270808501368E-001
-1.6147010E-001	2.224583123224209E-001
-1.5992045E-001	2.230312479971346E-001
-1.5918101E-001	2.238172009173366E-001
-1.5811104E-001	2.244674234723267E-001
-1.5703027E-001	2.249899180950941E-001
-1.5593038E-001	2.257307752001063E-001
-1.5521452E-001	2.262890523706356E-001
-1.5442152E-001	2.270171999310442E-001
-1.5331273E-001	2.276961316044126E-001
-1.5196675E-001	2.281969545911355E-001
-1.5142989E-001	2.288815587828008E-001
-1.5022734E-001	2.295136366522432E-001
-1.4890969E-001	2.302157532091917E-001
-1.4818455E-001	2.308483731898455E-001
-1.4738441E-001	2.315028438137636E-001
-1.4612657E-001	2.321228941925422E-001
-1.4541778E-001	2.326850178134106E-001
-1.4385803E-001	2.333203447676766E-001
-1.4369595E-001	2.338972021653145E-001
-1.4224541E-001	2.345932650345337E-001
-1.4110994E-001	2.351792381424000E-001
-1.3995698E-001	2.359249595621685E-001
-1.3928030E-001	2.365014476149736E-001
-1.3833396E-001	2.370602775140322E-001
-1.3704468E-001	2.377447091663876E-001
-1.3640532E-001	2.382675443120572E-001
-1.3530247E-001	2.388526118387482E-001
-1.3427219E-001	2.395332142779679E-001
-1.3327686E-001	2.403015139754165E-001
-1.3266023E-001	2.411030598191743E-001
-1.3092609E-001	2.414100122879499E-001
-1.3010311E-001	2.421132837249669E-001
-1.2919533E-001	2.426873729736716E-001
-1.2834024E-001	2.432148844969482E-001
-1.2712801E-001	2.438590473531113E-001
-1.2658976E-001	2.445053003935348E-001
-1.2520331E-001	2.450952173935042E-001
-1.2425051E-001	2.455885310423955E-001
-1.2322374E-001	2.461356114320190E-001
-1.2240873E-001	2.468161480846209E-001
-1.2140517E-001	2.474625716997750E-001
-1.1982652E-001	2.480687291050954E-001
-1.1927196E-001	2.486460750503747E-001
-1.1826757E-001	2.493070574753267E-001
-1.1687901E-001	2.498751946000608E-001
-1.1616306E-001	2.503884443923963E-001
-1.1518622E-001	2.509594931853587E-001
-1.1435998E-001	2.516322214915245E-001
-1.1311125E-001	2.522923891513726E-001
-1.1197461E-001	2.528529533840449E-001
-1.1124870E-001	2.534205550327893E-001
-1.1030438E-001	2.540103779400892E-001
-1.0895222E-001	2.546095573860740E-001
-1.0815716E-001	2.551820533419091E-001
-1.0715938E-001	2.557355816612557E-001
-1.0628302E-001	2.563751723134402E-001
-1.0531672E-001	2.569657484214538E-001
-1.0405610E-001	2.574764776078095E-001
-1.0332681E-001	2.581541579630651E-001
-1.0226344E-001	2.586479583605854E-001
-1.0121614E-001	2.593583204542047E-001
-1.0006831E-001	2.598493105766398E-001
-9.9511907E-002	2.605128209234842E-001
-9.7992860E-002	2.609822066776735E-001
-9.7130157E-002	2.616555048842666E-001
-9.5982842E-002	2.621585656686016E-001
-9.5008872E-002	2.628328261069144E-001
-9.4201081E-002	2.634053867379271E-001
-9.3391813E-002	2.638504750555706E-001
-9.2328638E-002	2.643842974815658E-001
-9.1104709E-002	2.650156641961405E-001
-9.0537228E-002	2.655329730844620E-001
-8.9106634E-002	2.662062688075291E-001
-8.8312998E-002	2.667415789345502E-001
-8.7102666E-002	2.672869864920232E-001
-8.6210892E-002	2.679293983512450E-001
-8.5072413E-002	2.685828510909812E-001
-8.3917998E-002	2.689537370094557E-001
-8.2911246E-002	2.695895510691200E-001
-8.2172640E-002	2.700328618963939E-001
-8.0558114E-002	2.706116195078252E-001
-8.0354914E-002	2.712698221206797E-001
-7.9374872E-002	2.717906284939358E-001
-7.8145802E-002	2.724050080265723E-001
-7.7018477E-002	2.730544788414154E-001
-7.6115958E-002	2.735132805451195E-001
-7.5237535E-002	2.740944565308312E-001
-7.4129499E-002	2.745616477541253E-001
-7.3270060E-002	2.752093705866072E-001
-7.2169542E-002	2.758116991845545E-001
-7.1463712E-002	2.763219480850541E-001
-6.9959804E-002	2.769154407497911E-001
-6.9292665E-002	2.773958504958829E-001
-6.8266064E-002	2.779935644538232E-001
-6.7154206E-002	2.786014697824926E-001
-6.6067569E-002	2.791331463369637E-001
-6.5071337E-002	2.796353697776801E-001
-6.3923299E-002	2.801652941852808E-001
-6.3449726E-002	2.808483931587711E-001
-6.2271461E-002	2.813670626944970E-001
-6.1238822E-002	2.818154640219821E-001
-6.0078472E-002	2.823496358355797E-001
-5.9517618E-002	2.827609196926164E-001
-5.8129247E-002	2.833408112120303E-001
-5.7678450E-002	2.838623612541467E-001
-5.6393411E-002	2.844503749575882E-001
-5.4851670E-002	2.850248432476752E-001
-5.4187492E-002	2.856950993873122E-001
-5.3344712E-002	2.860503885205139E-001
-5.2315641E-002	2.866636716499835E-001
-5.1172532E-002	2.870019937830939E-001
-5.0486296E-002	2.875594431879338E-001
-4.9300656E-002	2.876996620659842E-001
-4.8153318E-002	2.881578212190017E-001
-4.6984710E-002	2.887471832541948E-001
-4.6120066E-002	2.891748193703743E-001
-4.4946801E-002	2.898697566447994E-001
-4.4214115E-002	2.903443609398828E-001
-4.3039434E-002	2.908983607051230E-001
-4.1957073E-002	2.914387552688522E-001
-4.1621596E-002	2.919428010708738E-001
-4.0338755E-002	2.924827382106479E-001
-3.9442729E-002	2.929854690338738E-001
-3.8417690E-002	2.934947330368771E-001
-3.7343305E-002	2.940549936352506E-001
-3.6358822E-002	2.944363313209677E-001
-3.5636604E-002	2.949891700831571E-001
-3.4124065E-002	2.955318451341666E-001
-3.2982603E-002	2.960253118157952E-001
-3.2379370E-002	2.964263246422810E-001
-3.0937692E-002	2.970690117390082E-001
-2.9978238E-002	2.975954643140226E-001
-2.9307231E-002	2.980078176488341E-001
-2.8294161E-002	2.985285273925578E-001
-2.7342333E-002	2.991147249400052E-001
-2.6512079E-002	2.995911921477994E-001
-2.4914548E-002	3.000371395437811E-001
-2.4135260E-002	3.004538157729280E-001
-2.3199495E-002	3.009550907752581E-001
-2.2562480E-002	3.016420696620603E-001
-2.1398721E-002	3.020262742500857E-001
-2.0217624E-002	3.025108814860387E-001
-1.9230593E-002	3.029769760453043E-001
-1.8066363E-002	3.034338557995984E-001
-1.7510029E-002	3.039364795441979E-001
-1.6243204E-002	3.044475363567476E-001
-1.5059743E-002	3.048736554302049E-001
-1.4285265E-002	3.053018691846074E-001
-1.3431606E-002	3.057931600243338E-001
-1.2544973E-002	3.062702022078936E-001
-1.1631552E-002	3.068557686896796E-001
-1.0412764E-002	3.072621540322240E-001
-8.9014731E-003	3.076197402206828E-001
-8.3550317E-003	3.081717495634057E-001
-7.3236376E-003	3.086037020123278E-001
-6.5945862E-003	3.090982833463274E-001
-5.3591565E-003	3.094873164814935E-001
-3.9057420E-003	3.100514680784829E-001
-3.4691009E-003	3.106279431807781E-001
-2.4507553E-003	3.110539317420820E-001
-1.2869462E-003	3.114996045069027E-001
-3.1158436E-004	3.118941530723269E-001
8.7747391E-004	3.122638455985573E-001
1.9600873E-003	3.128687837678523E-001
2.8149604E-003	3.133650639404850E-001
3.6523347E-003	3.136573119194184E-001
4.8064119E-003	3.141588633190162E-001
5.8763823E-003	3.146007707411487E-001
6.3822363E-003	3.149829554001129E-001
6.3797627E-003	3.154460760680111E-001