EC-Lab ASCII FILE
Nb header lines : 63                          

Linear Sweep Voltammetry

Run on channel : 6 (SN 13765)
User : 
Electrode connection : standard
Potential control : Ewe
Ewe ctrl range : min = -2.50 V, max = 2.50 V
Ewe,I filtering : <None>
Safety Limits :
	Do not start on E overload
Channel : Floating
Acquisition started on : 07/17/2026 14:27:48.661
Technique started on : 07/17/2026 14:27:49.658
Loaded Setting File :  C:\Users\EEM-620\Desktop\Wade\abao\20260629\N719_0629-0-1_C06.mpr
Saved on :
	File : N719_0717-i-2_C06.mpr
	Directory : C:\Users\EEM-620\Desktop\Wade\abao\20260717\
	Host : 192.109.209.200
Device : VSP-300 (SN 0025)
Address : 192.109.209.129
EC-LAB for windows v11.62 (software)
Internet server v27.00 (firmware)
Command interpretor v12.02 (firmware)
Electrode material : Au/Pd
Initial state : 
Electrolyte : NaCl (0.2M)
Comments : Fe(CN)63-/Fe(CN)64- 5.10-3 M
Cable : ULC
Reference electrode : SCE Saturated Calomel Electrode (0.241 V)
Electrode surface area : 0.001 cm2
Characteristic mass : 0.001 g
Equivalent Weight : 0.000 g/eq.
Density : 0.000 g/cm3
Volume (V) : 0.001 cm3
Cycle Definition : Charge/Discharge alternance
tR (h:m:s)          0:00:5.0000         
dER/dt (mV/h)       0.0                 
dER (mV)            0                   
dtR (s)             0.0500              
dE/dt               10.000              
dE/dt unit          mV/s                
Ei (V)              -0.800              
vs.                 Ref                 
EL (V)              0.010               
vs.                 Ref                 
record              <I>                 
dI                  0.000               
unit dI             uA                  
tI (s)              0.0000              
step percent        50                  
N                   10                  
E range min (V)     -2.500              
E range max (V)     2.500               
I Range             Auto                
I Range min         Unset               
I Range max         Unset               
I Range init        Unset               
Bandwidth           8                   

Ewe/V	<I>/mA	
-6.1564690E-001	0.000000000000000E+000
-6.1488324E-001	0.000000000000000E+000
-6.1524212E-001	0.000000000000000E+000
-6.1472285E-001	0.000000000000000E+000
-6.1544067E-001	0.000000000000000E+000
-6.1491376E-001	0.000000000000000E+000
-6.1436009E-001	0.000000000000000E+000
-6.1509705E-001	0.000000000000000E+000
-6.1299318E-001	0.000000000000000E+000
-6.1562014E-001	0.000000000000000E+000
-6.1500162E-001	0.000000000000000E+000
-6.1258841E-001	0.000000000000000E+000
-6.1656326E-001	0.000000000000000E+000
-6.1506265E-001	0.000000000000000E+000
-6.1523068E-001	0.000000000000000E+000
-6.1451286E-001	0.000000000000000E+000
-6.1738038E-001	0.000000000000000E+000
-6.1566216E-001	0.000000000000000E+000
-6.1497486E-001	0.000000000000000E+000
-6.1371481E-001	0.000000000000000E+000
-6.1353153E-001	0.000000000000000E+000
-6.1542159E-001	0.000000000000000E+000
-6.1547124E-001	0.000000000000000E+000
-6.1365372E-001	0.000000000000000E+000
-6.1473811E-001	0.000000000000000E+000
-6.1414629E-001	0.000000000000000E+000
-6.1594856E-001	0.000000000000000E+000
-6.1648309E-001	0.000000000000000E+000
-6.1648691E-001	0.000000000000000E+000
-6.1413866E-001	0.000000000000000E+000
-6.1296648E-001	0.000000000000000E+000
-6.1435246E-001	0.000000000000000E+000
-6.1453193E-001	0.000000000000000E+000
-6.1596376E-001	0.000000000000000E+000
-6.1484122E-001	0.000000000000000E+000
-6.1549801E-001	0.000000000000000E+000
-6.1574614E-001	0.000000000000000E+000
-6.1507028E-001	0.000000000000000E+000
-6.1623490E-001	0.000000000000000E+000
-6.1455101E-001	0.000000000000000E+000
-6.1591798E-001	0.000000000000000E+000
-6.1288244E-001	0.000000000000000E+000
-6.1489087E-001	0.000000000000000E+000
-6.1445558E-001	0.000000000000000E+000
-6.1455101E-001	0.000000000000000E+000
-6.1426848E-001	0.000000000000000E+000
-6.1469233E-001	0.000000000000000E+000
-6.1379504E-001	0.000000000000000E+000
-6.1425704E-001	0.000000000000000E+000
-6.1355829E-001	0.000000000000000E+000
-6.1548650E-001	0.000000000000000E+000
-6.1497104E-001	0.000000000000000E+000
-6.1516577E-001	0.000000000000000E+000
-6.1558574E-001	0.000000000000000E+000
-6.1478013E-001	0.000000000000000E+000
-6.1326808E-001	0.000000000000000E+000
-6.1419213E-001	0.000000000000000E+000
-6.1414248E-001	0.000000000000000E+000
-6.1551708E-001	0.000000000000000E+000
-6.1580724E-001	0.000000000000000E+000
-6.1549032E-001	0.000000000000000E+000
-6.1911392E-001	0.000000000000000E+000
-6.1967903E-001	0.000000000000000E+000
-7.8972667E-001	-1.410713177257115E+000
-7.8888172E-001	-1.404203350483268E+000
-7.8753430E-001	-1.392867032162570E+000
-7.8661144E-001	-1.383678660083862E+000
-7.8572333E-001	-1.373920666122880E+000
-7.8451639E-001	-1.364482969045643E+000
-7.8363168E-001	-1.356089867486734E+000
-7.8288513E-001	-1.347568883388129E+000
-7.8172624E-001	-1.338681020808444E+000
-7.8098589E-001	-1.330017060479342E+000
-7.7992058E-001	-1.321475612344566E+000
-7.7872521E-001	-1.313172312208273E+000
-7.7774656E-001	-1.305122265937154E+000
-7.7674478E-001	-1.296378375065550E+000
-7.7571476E-001	-1.288781527313303E+000
-7.7479446E-001	-1.280063650674286E+000
-7.7377671E-001	-1.272012828538811E+000
-7.7280378E-001	-1.263523110805005E+000
-7.7181691E-001	-1.255508994752610E+000
-7.7092761E-001	-1.247776654169517E+000
-7.7002507E-001	-1.238723179136018E+000
-7.6867449E-001	-1.230621103059359E+000
-7.6779455E-001	-1.222735378689343E+000
-7.6664948E-001	-1.214305290469421E+000
-7.6602960E-001	-1.206538057575614E+000
-7.6470172E-001	-1.198155997131081E+000
-7.6374418E-001	-1.190435091792434E+000
-7.6292658E-001	-1.181443925671002E+000
-7.6164699E-001	-1.173417334890181E+000
-7.6085466E-001	-1.165449223722572E+000
-7.5981134E-001	-1.157119180179308E+000
-7.5876379E-001	-1.148839153578589E+000
-7.5794911E-001	-1.140599231753081E+000
-7.5675482E-001	-1.132565823970015E+000
-7.5569391E-001	-1.124965058102746E+000
-7.5474298E-001	-1.117051730553314E+000
-7.5378025E-001	-1.108540743701710E+000
-7.5273460E-001	-1.100324894543048E+000
-7.5154793E-001	-1.092043396775367E+000
-7.5081283E-001	-1.083595980740483E+000
-7.4999470E-001	-1.075837004377885E+000
-7.4870598E-001	-1.067857508030202E+000
-7.4769431E-001	-1.059722056257716E+000
-7.4682808E-001	-1.051482829368780E+000
-7.4596685E-001	-1.043463242826643E+000
-7.4478579E-001	-1.035450958557462E+000
-7.4384022E-001	-1.027051779269064E+000
-7.4264610E-001	-1.018908601220918E+000
-7.4185944E-001	-1.011226038965912E+000
-7.4073756E-001	-1.002990342814615E+000
-7.3977083E-001	-9.947669449210639E-001
-7.3867238E-001	-9.868969050822418E-001
-7.3777616E-001	-9.786239623747512E-001
-7.3686045E-001	-9.706002950818897E-001
-7.3587990E-001	-9.623598405332450E-001
-7.3476845E-001	-9.543897711016491E-001
-7.3392916E-001	-9.462583338125903E-001
-7.3270589E-001	-9.381217170092775E-001
-7.3180419E-001	-9.305404024543584E-001
-7.3085320E-001	-9.220831195022789E-001
-7.2967863E-001	-9.141041109407380E-001
-7.2864807E-001	-9.055046092858685E-001
-7.2784561E-001	-8.979651456077908E-001
-7.2676677E-001	-8.897884111437513E-001
-7.2588140E-001	-8.817885896813671E-001
-7.2483510E-001	-8.736487380056435E-001
-7.2391468E-001	-8.654348480480714E-001
-7.2276711E-001	-8.578873593981271E-001
-7.2197223E-001	-8.492793945802548E-001
-7.2062165E-001	-8.418225868156650E-001
-7.1986181E-001	-8.329407087719050E-001
-7.1888989E-001	-8.250869760910646E-001
-7.1796006E-001	-8.176037117286978E-001
-7.1677512E-001	-8.093433828841450E-001
-7.1589458E-001	-8.010694155538509E-001
-7.1499789E-001	-7.931980252978228E-001
-7.1385247E-001	-7.855389926720555E-001
-7.1288025E-001	-7.770007289256233E-001
-7.1171916E-001	-7.692671897510435E-001
-7.1071863E-001	-7.612234814851373E-001
-7.0983374E-001	-7.533037363103183E-001
-7.0892048E-001	-7.450746529790031E-001
-7.0774680E-001	-7.374442659870351E-001
-7.0667678E-001	-7.292210662530536E-001
-7.0591128E-001	-7.208820647740102E-001
-7.0496905E-001	-7.127832064612027E-001
-7.0392716E-001	-7.048952247171769E-001
-7.0324123E-001	-6.970976281359214E-001
-7.0184815E-001	-6.888002235166484E-001
-7.0052493E-001	-6.807942865692054E-001
-6.9987816E-001	-6.730898451749905E-001
-6.9864225E-001	-6.650079316287130E-001
-6.9776142E-001	-6.570196291381594E-001
-6.9662535E-001	-6.489666207796994E-001
-6.9597417E-001	-6.408841142913833E-001
-6.9489372E-001	-6.326703511917771E-001
-6.9364494E-001	-6.248910565757075E-001
-6.9287539E-001	-6.169109424507182E-001
-6.9176471E-001	-6.096635873663256E-001
-6.9084495E-001	-6.010248465808434E-001
-6.8991643E-001	-5.933915820368512E-001
-6.8895435E-001	-5.854485702735417E-001
-6.8749881E-001	-5.774748528169251E-001
-6.8687266E-001	-5.689217434589213E-001
-6.8580770E-001	-5.615005304829932E-001
-6.8499029E-001	-5.532478674280419E-001
-6.8390954E-001	-5.452864831402771E-001
-6.8277705E-001	-5.374357543057862E-001
-6.8169326E-001	-5.296110712957596E-001
-6.8087983E-001	-5.213671333972171E-001
-6.7988801E-001	-5.131919272243968E-001
-6.7863655E-001	-5.054449507345744E-001
-6.7766321E-001	-4.976322395178143E-001
-6.7673504E-001	-4.895139907797152E-001
-6.7558002E-001	-4.819143792421174E-001
-6.7485768E-001	-4.743094659513876E-001
-6.7383987E-001	-4.658656497658384E-001
-6.7272550E-001	-4.582427215527445E-001
-6.7168915E-001	-4.496500213389052E-001
-6.7115378E-001	-4.414724058437107E-001
-6.6995537E-001	-4.326658808024830E-001
-6.6844887E-001	-4.246669315767555E-001
-6.6765261E-001	-4.167180153945305E-001
-6.6613823E-001	-4.085585670200782E-001
-6.6570908E-001	-4.011549483984709E-001
-6.6485244E-001	-3.930997666281026E-001
-6.6391200E-001	-3.853114658483765E-001
-6.6230267E-001	-3.774171281881902E-001
-6.6174239E-001	-3.694209031032489E-001
-6.6026396E-001	-3.616160632076664E-001
-6.5986365E-001	-3.535494016207483E-001
-6.5839982E-001	-3.458800709164187E-001
-6.5796065E-001	-3.380904291514995E-001
-6.5643275E-001	-3.301577327979937E-001
-6.5545291E-001	-3.224313615321894E-001
-6.5475589E-001	-3.144318526955665E-001
-6.5377265E-001	-3.066789736102931E-001
-6.5291542E-001	-2.984454678026625E-001
-6.5186244E-001	-2.905317888836607E-001
-6.5060663E-001	-2.827812234759657E-001
-6.4980334E-001	-2.748556535829012E-001
-6.4851761E-001	-2.671375545086674E-001
-6.4742005E-001	-2.592017024163629E-001
-6.4638662E-001	-2.513391979866557E-001
-6.4543831E-001	-2.434192977293765E-001
-6.4462799E-001	-2.355172978001354E-001
-6.4380026E-001	-2.276523925915916E-001
-6.4262861E-001	-2.198408947319845E-001
-6.4170367E-001	-2.121789809661321E-001
-6.4078635E-001	-2.040394318669483E-001
-6.3993192E-001	-1.963701249533123E-001
-6.3847321E-001	-1.883441899144263E-001
-6.3827652E-001	-1.806968574377672E-001
-6.3598406E-001	-1.725352705498371E-001
-6.3519436E-001	-1.648122070495176E-001
-6.3471282E-001	-1.569469118732272E-001
-6.3348925E-001	-1.491948205727327E-001
-6.3266766E-001	-1.414040950023463E-001
-6.3177574E-001	-1.334555029041242E-001
-6.3021022E-001	-1.256373250645537E-001
-6.2980098E-001	-1.179718257755860E-001
-6.2850088E-001	-1.099329291394099E-001
-6.2763184E-001	-1.022385988487966E-001
-6.2644809E-001	-9.421526224145471E-002
-6.2567759E-001	-8.647704890047971E-002
-6.2454343E-001	-7.877790371680504E-002
-6.2351310E-001	-7.080427702102365E-002
-6.2258631E-001	-6.307615889218599E-002
-6.2168032E-001	-5.512178183050320E-002
-6.2012947E-001	-4.738977438925462E-002
-6.1921751E-001	-3.872756769751884E-002
-6.1850816E-001	-2.955364079335358E-002
-6.1749017E-001	-2.197032159952406E-002
-6.1598957E-001	-1.400591841687585E-002
-6.1517906E-001	-6.242343164760494E-003
-6.1365885E-001	1.624560622588277E-003
-6.1358041E-001	9.390412849218930E-003
-6.1183894E-001	1.711905552548602E-002
-6.1105514E-001	2.474580401970489E-002
-6.1032623E-001	3.297762638734042E-002
-6.0932863E-001	4.029720565907791E-002
-6.0754120E-001	4.848587435209789E-002
-6.0720628E-001	5.623296448202053E-002
-6.0631710E-001	6.428933203283965E-002
-6.0573876E-001	7.198262881246142E-002
-6.0427570E-001	7.980622435678530E-002
-6.0287273E-001	8.750195239783098E-002
-6.0205024E-001	9.558498586045094E-002
-6.0107273E-001	1.031608181419199E-001
-6.0026062E-001	1.117529745100190E-001
-5.9910470E-001	1.206351408252013E-001
-5.9731215E-001	1.282817572661892E-001
-5.9692806E-001	1.361841739120861E-001
-5.9643036E-001	1.437145481575965E-001
-5.9468478E-001	1.517366501553350E-001
-5.9419709E-001	1.593046776294989E-001
-5.9316915E-001	1.672333483929165E-001
-5.9200925E-001	1.747742451955323E-001
-5.9092546E-001	1.824671006416554E-001
-5.8999658E-001	1.903728535053906E-001
-5.8918738E-001	1.978918358253772E-001
-5.8779854E-001	2.055634360898431E-001
-5.8692300E-001	2.135619003394686E-001
-5.8577287E-001	2.212805212527846E-001
-5.8483994E-001	2.288957765946789E-001
-5.8420968E-001	2.364885731316475E-001
-5.8263105E-001	2.442130303976165E-001
-5.8184576E-001	2.516744095763119E-001
-5.8081436E-001	2.595249219779179E-001
-5.8004761E-001	2.671937630684291E-001
-5.7874662E-001	2.749674982149850E-001
-5.7795686E-001	2.823399936084774E-001
-5.7687289E-001	2.904765620068819E-001
-5.7575220E-001	2.979749411137576E-001
-5.7499659E-001	3.055304623003359E-001
-5.7386237E-001	3.134036879572593E-001
-5.7303911E-001	3.209146233341378E-001
-5.7230091E-001	3.285493627190599E-001
-5.7098681E-001	3.362276042570134E-001
-5.6963748E-001	3.436592864070747E-001
-5.6864172E-001	3.513600259536398E-001
-5.6809211E-001	3.590180782118324E-001
-5.6703806E-001	3.665094269834395E-001
-5.6639951E-001	3.742674460841560E-001
-5.6466049E-001	3.819595651218179E-001
-5.6406170E-001	3.897002058929219E-001
-5.6283665E-001	3.971439402688421E-001
-5.6165612E-001	4.048698129201371E-001
-5.6097430E-001	4.124517109463202E-001
-5.5990398E-001	4.199754701996277E-001
-5.5911154E-001	4.275387433347300E-001
-5.5785906E-001	4.356548853080593E-001
-5.5682534E-001	4.426588080823408E-001
-5.5580091E-001	4.503490706319973E-001
-5.5511034E-001	4.576391396285207E-001
-5.5377388E-001	4.656198922268761E-001
-5.5338287E-001	4.731099682737350E-001
-5.5238789E-001	4.806429554742788E-001
-5.5065179E-001	4.883019060448373E-001
-5.4996371E-001	4.960479143347314E-001
-5.4862201E-001	5.033100709595084E-001
-5.4780149E-001	5.111778824831585E-001
-5.4681826E-001	5.187371330794646E-001
-5.4635090E-001	5.260608638464284E-001
-5.4461473E-001	5.339279816111131E-001
-5.4395795E-001	5.412817410434805E-001
-5.4300016E-001	5.486938383568216E-001
-5.4185283E-001	5.562721960045023E-001
-5.4095674E-001	5.640692528061280E-001
-5.3944767E-001	5.714302492776380E-001
-5.3915697E-001	5.791104446065730E-001
-5.3776354E-001	5.866048406395654E-001
-5.3752345E-001	5.942979408773015E-001
-5.3559595E-001	6.016195965949143E-001
-5.3433627E-001	6.093785575142601E-001
-5.3423506E-001	6.166314629093632E-001
-5.3271282E-001	6.244964737583105E-001
-5.3200775E-001	6.315783313992971E-001
-5.3095597E-001	6.391779244540579E-001
-5.3020805E-001	6.468466115356613E-001
-5.2858144E-001	6.543026743111824E-001
-5.2747911E-001	6.618375630641600E-001
-5.2705520E-001	6.693838814066522E-001
-5.2573705E-001	6.766818859786925E-001
-5.2498776E-001	6.843653305778723E-001
-5.2376550E-001	6.920690956628981E-001
-5.2305973E-001	6.993029712250938E-001
-5.2144420E-001	7.072064502077708E-001
-5.2085942E-001	7.143248640414761E-001
-5.2014571E-001	7.220586622392080E-001
-5.1866090E-001	7.294068829742848E-001
-5.1799053E-001	7.368362548726598E-001
-5.1693439E-001	7.443659500875786E-001
-5.1539427E-001	7.521107814930110E-001
-5.1484066E-001	7.592874093464115E-001
-5.1376289E-001	7.667352792349043E-001
-5.1298141E-001	7.742537217283667E-001
-5.1186323E-001	7.815787165805173E-001
-5.1101518E-001	7.888303440650866E-001
-5.0961936E-001	7.966133316081976E-001
-5.0836867E-001	8.038989053004286E-001
-5.0850022E-001	8.113901398044217E-001
-5.0640160E-001	8.185684251840488E-001
-5.0604624E-001	8.261318410791301E-001
-5.0500345E-001	8.334649570838142E-001
-5.0388092E-001	8.407856394295319E-001
-5.0306594E-001	8.479935831862093E-001
-5.0207293E-001	8.553819646713915E-001
-5.0082374E-001	8.627214266194230E-001
-5.0046909E-001	8.700841323902644E-001
-4.9882755E-001	8.776245347603613E-001
-4.9845314E-001	8.849606037967748E-001
-4.9703577E-001	8.924083458516687E-001
-4.9544412E-001	8.999470889016408E-001
-4.9470305E-001	9.071947821551216E-001
-4.9390730E-001	9.146259497437219E-001
-4.9327794E-001	9.220829590879118E-001
-4.9195176E-001	9.292807393663445E-001
-4.9091798E-001	9.369428924940291E-001
-4.8989406E-001	9.441264584936455E-001
-4.8885971E-001	9.513729261018846E-001
-4.8781857E-001	9.589562141508967E-001
-4.8681965E-001	9.662019293065391E-001
-4.8582423E-001	9.733364352393856E-001
-4.8456690E-001	9.807624941070880E-001
-4.8380786E-001	9.882165814439505E-001
-4.8330328E-001	9.955938092092502E-001
-4.8206547E-001	1.002741122825277E+000
-4.8073551E-001	1.009989263453710E+000
-4.7985953E-001	1.017303957707349E+000
-4.7861820E-001	1.024560836868153E+000
-4.7764790E-001	1.031925412860417E+000
-4.7694916E-001	1.039179215966556E+000
-4.7573051E-001	1.046625755865263E+000
-4.7498363E-001	1.053882149654873E+000
-4.7351950E-001	1.061160555178368E+000
-4.7257385E-001	1.068658973193832E+000
-4.7225100E-001	1.075671395694361E+000
-4.7102809E-001	1.082789884535248E+000
-4.6982041E-001	1.090195885548989E+000
-4.6838337E-001	1.098260184871437E+000
-4.6749806E-001	1.107119956226260E+000
-4.6659046E-001	1.114601946014679E+000
-4.6558952E-001	1.121478319444039E+000
-4.6474189E-001	1.128570205083596E+000
-4.6355569E-001	1.136535326991165E+000
-4.6273032E-001	1.143378367854491E+000
-4.6193758E-001	1.150454881842490E+000
-4.6079141E-001	1.157759308353090E+000
-4.5996183E-001	1.164940492284519E+000
-4.5859692E-001	1.171554772731191E+000
-4.5774364E-001	1.178546207232607E+000
-4.5648035E-001	1.185786578666283E+000
-4.5564488E-001	1.192983253535674E+000
-4.5468199E-001	1.200698467178471E+000
-4.5368707E-001	1.207651953592343E+000
-4.5281461E-001	1.214596260654421E+000
-4.5184794E-001	1.221781340600163E+000
-4.5067617E-001	1.229045242209127E+000
-4.4970855E-001	1.236221927124385E+000
-4.4866437E-001	1.242839927474657E+000
-4.4754672E-001	1.250390676932142E+000
-4.4663638E-001	1.256853008573808E+000
-4.4561031E-001	1.264624022223334E+000
-4.4476968E-001	1.271811729569572E+000
-4.4364625E-001	1.279063702181532E+000
-4.4256228E-001	1.286116348786488E+000
-4.4192302E-001	1.293292242943345E+000
-4.4090742E-001	1.299788091745640E+000
-4.3974924E-001	1.307241940387973E+000
-4.3899539E-001	1.314204960940994E+000
-4.3780953E-001	1.320950177394684E+000
-4.3674785E-001	1.328649753497706E+000
-4.3539149E-001	1.335208404228818E+000
-4.3457374E-001	1.342233021364162E+000
-4.3370715E-001	1.349478818671232E+000
-4.3260267E-001	1.356408475587767E+000
-4.3166146E-001	1.363151210187764E+000
-4.3066901E-001	1.370511778870657E+000
-4.2998838E-001	1.377562893071661E+000
-4.2850098E-001	1.384566797978347E+000
-4.2796066E-001	1.392014197448951E+000
-4.2669892E-001	1.398480699018197E+000
-4.2575440E-001	1.405961025368286E+000
-4.2452708E-001	1.413267000398369E+000
-4.2378688E-001	1.419754110828592E+000
-4.2288277E-001	1.427154034100194E+000
-4.2177036E-001	1.434026351021588E+000
-4.2087242E-001	1.440844026428682E+000
-4.1966403E-001	1.447705529896410E+000
-4.1866484E-001	1.454103891772249E+000
-4.1742474E-001	1.461655599651511E+000
-4.1686440E-001	1.468467222876278E+000
-4.1557774E-001	1.475588145355374E+000
-4.1474029E-001	1.482401068011917E+000
-4.1359016E-001	1.489261837208122E+000
-4.1300339E-001	1.496204905073956E+000
-4.1125607E-001	1.503037004697100E+000
-4.1086617E-001	1.510106254489862E+000
-4.1008446E-001	1.517040239991961E+000
-4.0873471E-001	1.524180596763330E+000
-4.0783808E-001	1.531084813531518E+000
-4.0650165E-001	1.537599702538166E+000
-4.0574098E-001	1.545154287338562E+000
-4.0463793E-001	1.551860377330463E+000
-4.0373960E-001	1.558414519109107E+000
-4.0258360E-001	1.564995386376182E+000
-4.0191084E-001	1.572249612874458E+000
-4.0061745E-001	1.578774065607123E+000
-3.9977685E-001	1.586237499141376E+000
-3.9877406E-001	1.592532574854513E+000
-3.9757490E-001	1.599413919504041E+000
-3.9677322E-001	1.606064242243455E+000
-3.9558306E-001	1.613172827219525E+000
-3.9464793E-001	1.619696975487100E+000
-3.9385822E-001	1.626714509670379E+000
-3.9257655E-001	1.633070190471628E+000
-3.9169437E-001	1.640293294459937E+000
-3.9052424E-001	1.647124649197966E+000
-3.8982907E-001	1.653809588540469E+000
-3.8850561E-001	1.660548850770361E+000
-3.8783827E-001	1.667018762893149E+000
-3.8676915E-001	1.673750100864297E+000
-3.8598150E-001	1.680522633241317E+000
-3.8471916E-001	1.687505488042480E+000
-3.8382500E-001	1.694009217123195E+000
-3.8275188E-001	1.701101127226092E+000
-3.8156077E-001	1.707727948272669E+000
-3.8075316E-001	1.714575970749042E+000
-3.7967882E-001	1.720705653782256E+000
-3.7880182E-001	1.727993883468496E+000
-3.7783098E-001	1.734598568177859E+000
-3.7682483E-001	1.741450446347393E+000
-3.7548012E-001	1.748096086912687E+000
-3.7482077E-001	1.754725648109300E+000
-3.7364590E-001	1.761829667621186E+000
-3.7270677E-001	1.767932970766662E+000
-3.7185049E-001	1.774407918048674E+000
-3.7042215E-001	1.780949649711445E+000
-3.6958057E-001	1.788243000843835E+000
-3.6879790E-001	1.793863395297974E+000
-3.6773068E-001	1.801202614550242E+000
-3.6684823E-001	1.807911446353440E+000
-3.6567667E-001	1.813927670043936E+000
-3.6481544E-001	1.820802938331056E+000
-3.6383855E-001	1.827623832216810E+000
-3.6277243E-001	1.833890941683903E+000
-3.6157456E-001	1.840484082146933E+000
-3.6074883E-001	1.846947870613015E+000
-3.5974535E-001	1.853096860702404E+000
-3.5867649E-001	1.858836907203553E+000
-3.5749546E-001	1.864961657087648E+000
-3.5686195E-001	1.870780650940212E+000
-3.5558873E-001	1.877934134718153E+000
-3.5485604E-001	1.884461263263670E+000
-3.5349593E-001	1.891580171055267E+000
-3.5265529E-001	1.898066110053087E+000
-3.5171720E-001	1.904543227895545E+000
-3.5076240E-001	1.911103301026188E+000
-3.4969267E-001	1.917860400262229E+000
-3.4888339E-001	1.923597140720595E+000
-3.4748209E-001	1.930902244868112E+000
-3.4664878E-001	1.937243499260997E+000
-3.4589219E-001	1.943348818631080E+000
-3.4456277E-001	1.950089762884161E+000
-3.4375310E-001	1.956448273502311E+000
-3.4271282E-001	1.963341285785042E+000
-3.4168497E-001	1.969091844215637E+000
-3.4091333E-001	1.975586939465117E+000
-3.3961323E-001	1.982055338720478E+000
-3.3873093E-001	1.987902333904678E+000
-3.3780989E-001	1.995107811910138E+000
-3.3707720E-001	2.001423652249358E+000
-3.3577701E-001	2.007847137286745E+000
-3.3475336E-001	2.014093636086695E+000
-3.3411255E-001	2.020372839713540E+000
-3.3276486E-001	2.026781583968122E+000
-3.3166626E-001	2.033802779736341E+000
-3.3075160E-001	2.039071505078919E+000
-3.2974887E-001	2.045581888821388E+000
-3.2840398E-001	2.052204822776487E+000
-3.2769233E-001	2.058374216467016E+000
-3.2638365E-001	2.064613050056821E+000
-3.2585695E-001	2.070561851340312E+000
-3.2470778E-001	2.076926996123451E+000
-3.2381055E-001	2.083297037967931E+000
-3.2268840E-001	2.089500146331609E+000
-3.2191017E-001	2.095635715957542E+000
-3.2078815E-001	2.101463834720640E+000
-3.1953746E-001	2.108232252575740E+000
-3.1880724E-001	2.114429505277567E+000
-3.1783727E-001	2.120335281723072E+000
-3.1659144E-001	2.127229049391076E+000
-3.1592831E-001	2.131906577006539E+000
-3.1480831E-001	2.139042882731665E+000
-3.1410581E-001	2.145709227983282E+000
-3.1288028E-001	2.151543783368894E+000
-3.1169361E-001	2.157050413114067E+000
-3.1097189E-001	2.164050812961703E+000
-3.0952123E-001	2.170250931271802E+000
-3.0857685E-001	2.176478942787199E+000
-3.0787131E-001	2.181740697774501E+000
-3.0661592E-001	2.188211122596698E+000
-3.0576599E-001	2.193777849552809E+000
-3.0479652E-001	2.200269172433003E+000
-3.0378726E-001	2.206138815316887E+000
-3.0269748E-001	2.212272214829792E+000
-3.0155203E-001	2.218483514531890E+000
-3.0069125E-001	2.224677775745041E+000
-2.9998401E-001	2.229693372178090E+000
-2.9890829E-001	2.236037754902133E+000
-2.9778105E-001	2.242015138820360E+000
-2.9693371E-001	2.248458124558937E+000
-2.9592365E-001	2.254669900017755E+000
-2.9478604E-001	2.260264897788007E+000
-2.9371777E-001	2.266559629289034E+000
-2.9259497E-001	2.272804934669420E+000
-2.9167381E-001	2.278562063117471E+000
-2.9089329E-001	2.285041100449032E+000
-2.8981930E-001	2.290606271061632E+000
-2.8876787E-001	2.295894087572510E+000
-2.8766808E-001	2.302376953264076E+000
-2.8672710E-001	2.307811696772223E+000
-2.8567117E-001	2.313831374137688E+000
-2.8498343E-001	2.319846551451406E+000
-2.8357592E-001	2.326327801578574E+000
-2.8286719E-001	2.331496753573180E+000
-2.8174892E-001	2.338498320844426E+000
-2.8090909E-001	2.343945495508328E+000
-2.7987272E-001	2.349850882299643E+000
-2.7907842E-001	2.355320642391838E+000
-2.7778268E-001	2.360197323167663E+000
-2.7698767E-001	2.366886403273650E+000
-2.7595142E-001	2.372362118352338E+000
-2.7473396E-001	2.378148623638360E+000
-2.7378860E-001	2.384366060848597E+000
-2.7264905E-001	2.389667525335589E+000
-2.7180532E-001	2.395423866561918E+000
-2.7080014E-001	2.401578616488855E+000
-2.6986593E-001	2.406918472162001E+000
-2.6871300E-001	2.412608925947083E+000
-2.6761889E-001	2.419339821294500E+000
-2.6674956E-001	2.424654215022365E+000
-2.6601475E-001	2.429584486964925E+000
-2.6487800E-001	2.435613320105595E+000
-2.6363835E-001	2.441672997129938E+000
-2.6285303E-001	2.447780135881019E+000
-2.6208723E-001	2.452882255117100E+000
-2.6087993E-001	2.458602672417377E+000
-2.5969976E-001	2.464765143615239E+000
-2.5896004E-001	2.469485750904790E+000
-2.5803745E-001	2.475558979593849E+000
-2.5657851E-001	2.480865303013069E+000
-2.5586617E-001	2.486818805612893E+000
-2.5485453E-001	2.492188226404310E+000
-2.5376588E-001	2.497978616643834E+000
-2.5292459E-001	2.503825720894667E+000
-2.5157610E-001	2.509086210970523E+000
-2.5085339E-001	2.514804863267480E+000
-2.4959205E-001	2.520296061684157E+000
-2.4886149E-001	2.525924974569577E+000
-2.4779744E-001	2.531302146613598E+000
-2.4663250E-001	2.536688166763852E+000
-2.4586561E-001	2.542447489996746E+000
-2.4477297E-001	2.547692301372692E+000
-2.4373235E-001	2.552807964392507E+000
-2.4269347E-001	2.558261878236580E+000
-2.4181525E-001	2.563364742254776E+000
-2.4081454E-001	2.569698611146372E+000
-2.3977543E-001	2.575601807622995E+000
-2.3870492E-001	2.579286265505871E+000
-2.3790024E-001	2.586097955151839E+000
-2.3691703E-001	2.590962195561994E+000
-2.3575370E-001	2.596549725437594E+000
-2.3499940E-001	2.601524109365766E+000
-2.3388889E-001	2.606580236443776E+000
-2.3304179E-001	2.613019470335983E+000
-2.3183234E-001	2.617561032098756E+000
-2.3063937E-001	2.623850145549699E+000
-2.2999352E-001	2.628680703193144E+000
-2.2895439E-001	2.634317460159473E+000
-2.2756244E-001	2.639423861271807E+000
-2.2661698E-001	2.645101728646651E+000
-2.2581366E-001	2.650033642296435E+000
-2.2479048E-001	2.655450885024642E+000
-2.2359778E-001	2.661195754728948E+000
-2.2282943E-001	2.666050013292725E+000
-2.2195864E-001	2.671656419193308E+000
-2.2072387E-001	2.677093764422120E+000
-2.1992114E-001	2.681783397716508E+000
-2.1868457E-001	2.686849080330372E+000
-2.1785271E-001	2.692893577118717E+000
-2.1695752E-001	2.697310044809619E+000
-2.1578626E-001	2.702444266501072E+000
-2.1470387E-001	2.707854294942489E+000
-2.1382234E-001	2.713220376268243E+000
-2.1299307E-001	2.717979970077671E+000
-2.1184440E-001	2.723056854197274E+000
-2.1062492E-001	2.728120115841953E+000
-2.0991090E-001	2.733829692557993E+000
-2.0865910E-001	2.738500163510992E+000
-2.0801483E-001	2.744003229134925E+000
-2.0689081E-001	2.748044031913636E+000
-2.0566535E-001	2.753705729764910E+000
-2.0486113E-001	2.758929011198375E+000
-2.0385528E-001	2.763675147460575E+000
-2.0307358E-001	2.768733519646869E+000
-2.0181425E-001	2.774119068342486E+000
-2.0107217E-001	2.778546765446663E+000
-1.9960341E-001	2.784016563631781E+000
-1.9886135E-001	2.788763257088489E+000
-1.9784017E-001	2.794298280720362E+000
-1.9662417E-001	2.799801015684281E+000
-1.9549702E-001	2.804024552305535E+000
-1.9477834E-001	2.808916436577292E+000
-1.9378647E-001	2.814206439550446E+000
-1.9280937E-001	2.820025844430489E+000
-1.9161722E-001	2.824478641428334E+000
-1.9092186E-001	2.828806304691355E+000
-1.8977086E-001	2.834146047355954E+000
-1.8865572E-001	2.839006489625689E+000
-1.8771067E-001	2.844378328493733E+000
-1.8695509E-001	2.848912208996428E+000
-1.8584390E-001	2.854202588848480E+000
-1.8472689E-001	2.858727590077464E+000
-1.8377465E-001	2.864316326324570E+000
-1.8290538E-001	2.869126431737030E+000
-1.8177091E-001	2.874533566059888E+000
-1.8063368E-001	2.878709146545994E+000
-1.7992520E-001	2.883293535137227E+000
-1.7878371E-001	2.886754256431699E+000
-1.7781302E-001	2.892979592636785E+000
-1.7695138E-001	2.897316116998240E+000
-1.7558591E-001	2.901386112802541E+000
-1.7479593E-001	2.906834726510652E+000
-1.7398858E-001	2.909653328911027E+000
-1.7280215E-001	2.913599823360087E+000
-1.7184012E-001	2.917225233670592E+000
-1.7094392E-001	2.923017593169654E+000
-1.6974285E-001	2.927761276838954E+000
-1.6885914E-001	2.932977887897097E+000
-1.6764979E-001	2.938390706976246E+000
-1.6691732E-001	2.942313487882966E+000
-1.6572912E-001	2.948350188034720E+000
-1.6479921E-001	2.952849648065044E+000
-1.6374600E-001	2.957879439548215E+000
-1.6262868E-001	2.963078153105592E+000
-1.6173439E-001	2.967063012222454E+000
-1.6093729E-001	2.971977587163195E+000
-1.5969586E-001	2.976742621649180E+000
-1.5884076E-001	2.981366102342246E+000
-1.5775692E-001	2.986140508075190E+000
-1.5686311E-001	2.990306422114379E+000
-1.5586780E-001	2.995212688490192E+000
-1.5465185E-001	3.000890699752940E+000
-1.5382312E-001	3.005584624630458E+000
-1.5284798E-001	3.009593330323689E+000
-1.5166616E-001	3.013479162643783E+000
-1.5084589E-001	3.017219174239358E+000
-1.4977360E-001	3.023180989479581E+000
-1.4885254E-001	3.026010999621018E+000
-1.4781122E-001	3.032526858702866E+000
-1.4686881E-001	3.036501310527427E+000
-1.4572218E-001	3.041684832010002E+000
-1.4458306E-001	3.045463819470674E+000
-1.4389609E-001	3.050924311019039E+000
-1.4276385E-001	3.054967982073620E+000
-1.4179061E-001	3.060020945138401E+000
-1.4067255E-001	3.063429251939922E+000
-1.3974507E-001	3.068981768908316E+000
-1.3883334E-001	3.073395776803849E+000
-1.3769932E-001	3.077979703607177E+000
-1.3659689E-001	3.082122412820667E+000
-1.3596018E-001	3.087390299974118E+000
-1.3485362E-001	3.091978798309962E+000
-1.3369541E-001	3.095897600882580E+000
-1.3272068E-001	3.100696269864187E+000
-1.3205715E-001	3.104958586394790E+000
-1.3082892E-001	3.109932890644777E+000
-1.2989379E-001	3.114545305315048E+000
-1.2869026E-001	3.118874864721747E+000
-1.2759185E-001	3.123515978455558E+000
-1.2677713E-001	3.128067919524099E+000
-1.2562609E-001	3.132556776205675E+000
-1.2479857E-001	3.136288465173159E+000
-1.2374715E-001	3.141448132346255E+000
-1.2284254E-001	3.146141635598937E+000
-1.2192178E-001	3.150604325937792E+000
-1.2084685E-001	3.154533946955645E+000
-1.1987593E-001	3.158961666403002E+000
-1.1876257E-001	3.163171388793003E+000
-1.1772348E-001	3.167680925793114E+000
-1.1687857E-001	3.172111831329488E+000
-1.1575957E-001	3.177199891789968E+000
-1.1475964E-001	3.181348662133573E+000
-1.1386912E-001	3.185248021726245E+000
-1.1274527E-001	3.190232005785688E+000
-1.1188511E-001	3.194402040154849E+000
-1.1086031E-001	3.198524040756400E+000
-1.0969976E-001	3.203518023885380E+000
-1.0885464E-001	3.207501815976904E+000
-1.0773565E-001	3.213619975163747E+000
-1.0667864E-001	3.216481256264245E+000
-1.0583649E-001	3.221408072445129E+000
-1.0470255E-001	3.225357514772398E+000
-1.0385460E-001	3.229968423644692E+000
-1.0281176E-001	3.234557513837487E+000
-1.0196563E-001	3.239419343607175E+000
-1.0084748E-001	3.243221447975571E+000
-9.9984325E-002	3.247320478713064E+000
-9.8901607E-002	3.251932933215699E+000
-9.7997740E-002	3.256483328563204E+000
-9.6680328E-002	3.260378939805634E+000
-9.5958568E-002	3.264715742733756E+000
-9.4811164E-002	3.270403297411065E+000
-9.3869388E-002	3.274533565589302E+000
-9.2542470E-002	3.278425876741064E+000
-9.1676131E-002	3.282374008938142E+000
-9.0761416E-002	3.285766183910582E+000
-8.9789055E-002	3.291278982052091E+000
-8.8718228E-002	3.295495035471757E+000
-8.7993540E-002	3.300008617302318E+000
-8.6784475E-002	3.303508203338694E+000
-8.5540995E-002	3.308251790426397E+000
-8.5000359E-002	3.312898625014850E+000
-8.3836541E-002	3.317021049835063E+000
-8.2701124E-002	3.321444317472416E+000
-8.1734575E-002	3.326239240390294E+000
-8.1078887E-002	3.329958030471097E+000
-7.9892270E-002	3.334575964455652E+000
-7.8673571E-002	3.338728068603416E+000
-7.7808514E-002	3.343322035891031E+000
-7.6832965E-002	3.348409760409467E+000
-7.5851426E-002	3.352477700621989E+000
-7.4757069E-002	3.356534637234830E+000
-7.3590353E-002	3.361245957946281E+000
-7.2749920E-002	3.365250707224590E+000
-7.1889743E-002	3.369411129642415E+000
-7.0855200E-002	3.373717581928272E+000
-6.9787353E-002	3.378073593532605E+000
-6.8985485E-002	3.382000162006605E+000
-6.8044089E-002	3.386573219740839E+000
-6.6746928E-002	3.389958860145673E+000
-6.5519281E-002	3.393178827246572E+000
-6.4774141E-002	3.397636984785400E+000
-6.3969329E-002	3.402463762296577E+000
-6.2876277E-002	3.408741146912860E+000
-6.1853152E-002	3.412556784572431E+000
-6.0732055E-002	3.416534576702986E+000
-6.0036696E-002	3.420118950910265E+000
-5.8896307E-002	3.425216298412380E+000
-5.7888504E-002	3.428551288484840E+000
-5.7010699E-002	3.433678067944683E+000
-5.5899158E-002	3.436989980163396E+000
-5.4499574E-002	3.442969293597509E+000
-5.3711064E-002	3.445528140222578E+000
-5.2895851E-002	3.450414043885687E+000
-5.1847730E-002	3.453741527814136E+000
-5.0658122E-002	3.459157289178286E+000
-4.9921192E-002	3.462384136738599E+000
-4.8969425E-002	3.467127144122678E+000
-4.7707003E-002	3.471130759075848E+000
-4.6722729E-002	3.475633755878164E+000
-4.5642581E-002	3.480056543880993E+000
-4.4803403E-002	3.484162856031347E+000
-4.3950297E-002	3.489209294426409E+000
-4.2963620E-002	3.492541224868205E+000
-4.1725643E-002	3.497055719296142E+000
-4.0642940E-002	3.500583393339870E+000
-3.9733347E-002	3.505274274282987E+000
-3.8877621E-002	3.508872218154096E+000
-3.7791852E-002	3.513777868494373E+000
-3.6882143E-002	3.517424881458290E+000
-3.5788622E-002	3.521523368579373E+000
-3.4780432E-002	3.526486408125710E+000
-3.3833232E-002	3.530575562406472E+000
-3.2676291E-002	3.534620659770788E+000
-3.1896722E-002	3.538340430904697E+000
-3.0817844E-002	3.542853041379544E+000
-2.9801605E-002	3.547303874070984E+000
-2.8602807E-002	3.551213102760144E+000
-2.8053820E-002	3.555612938823515E+000
-2.6804421E-002	3.559906815285203E+000
-2.6117098E-002	3.563827825917144E+000
-2.4744844E-002	3.568379069368049E+000
-2.3477927E-002	3.571204025625789E+000
-2.2984399E-002	3.577315516493943E+000
-2.2030676E-002	3.580402014432110E+000
-2.0943804E-002	3.583821778213778E+000
-1.9880975E-002	3.588016426673633E+000
-1.8960346E-002	3.592801425460166E+000
-1.7850280E-002	3.596894712359822E+000
-1.6613578E-002	3.601180441401624E+000
-1.6210079E-002	3.605185329468242E+000
-1.4636549E-002	3.609466712231992E+000
-1.3590126E-002	3.613684807110715E+000
-1.3009463E-002	3.617223276420186E+000
-1.2026958E-002	3.621547588043754E+000
-1.0867681E-002	3.626065398255989E+000
-9.9083884E-003	3.629958743488686E+000
-8.8927746E-003	3.634111556741942E+000
-7.5014313E-003	3.638285071761516E+000
-6.7114686E-003	3.641802602680023E+000
-5.7935938E-003	3.646236802692783E+000
-4.8957090E-003	3.650481657820393E+000
-4.0596640E-003	3.655167655260492E+000
-2.9597830E-003	3.658833743245502E+000
-2.0009237E-003	3.662029270689112E+000
-9.4499683E-004	3.665963297088936E+000
2.1809775E-004	3.670044820617733E+000
1.0860853E-003	3.674034945909916E+000
2.1473956E-003	3.678810220073757E+000
3.1199995E-003	3.682567425900046E+000
4.1162102E-003	3.686449015994949E+000
4.9928715E-003	3.690000457344233E+000
6.1258441E-003	3.693811204146456E+000
6.7749545E-003	3.696550529288210E+000
5.7917451E-003	3.697209033099085E+000