EC-Lab ASCII FILE
Nb header lines : 63                          

Linear Sweep Voltammetry

Run on channel : 6 (SN 13765)
User : 
Electrode connection : standard
Potential control : Ewe
Ewe ctrl range : min = -2.50 V, max = 2.50 V
Ewe,I filtering : <None>
Safety Limits :
	Do not start on E overload
Channel : Floating
Acquisition started on : 07/17/2026 14:47:48.513
Technique started on : 07/17/2026 14:47:49.510
Loaded Setting File :  C:\Users\EEM-620\Desktop\Wade\abao\20260629\N719_0629-0-1_C06.mpr
Saved on :
	File : N719_0717-g-2_C06.mpr
	Directory : C:\Users\EEM-620\Desktop\Wade\abao\20260717\
	Host : 192.109.209.200
Device : VSP-300 (SN 0025)
Address : 192.109.209.129
EC-LAB for windows v11.62 (software)
Internet server v27.00 (firmware)
Command interpretor v12.02 (firmware)
Electrode material : Au/Pd
Initial state : 
Electrolyte : NaCl (0.2M)
Comments : Fe(CN)63-/Fe(CN)64- 5.10-3 M
Cable : ULC
Reference electrode : SCE Saturated Calomel Electrode (0.241 V)
Electrode surface area : 0.001 cm2
Characteristic mass : 0.001 g
Equivalent Weight : 0.000 g/eq.
Density : 0.000 g/cm3
Volume (V) : 0.001 cm3
Cycle Definition : Charge/Discharge alternance
tR (h:m:s)          0:00:5.0000         
dER/dt (mV/h)       0.0                 
dER (mV)            0                   
dtR (s)             0.0500              
dE/dt               10.000              
dE/dt unit          mV/s                
Ei (V)              -0.800              
vs.                 Ref                 
EL (V)              0.010               
vs.                 Ref                 
record              <I>                 
dI                  0.000               
unit dI             uA                  
tI (s)              0.0000              
step percent        50                  
N                   10                  
E range min (V)     -2.500              
E range max (V)     2.500               
I Range             Auto                
I Range min         Unset               
I Range max         Unset               
I Range init        Unset               
Bandwidth           8                   

Ewe/V	<I>/mA	
-6.9150490E-001	0.000000000000000E+000
-6.9082522E-001	0.000000000000000E+000
-6.9199359E-001	0.000000000000000E+000
-6.9197452E-001	0.000000000000000E+000
-6.9248235E-001	0.000000000000000E+000
-6.9181418E-001	0.000000000000000E+000
-6.9182181E-001	0.000000000000000E+000
-6.9183707E-001	0.000000000000000E+000
-6.9186383E-001	0.000000000000000E+000
-6.9225711E-001	0.000000000000000E+000
-6.9310474E-001	0.000000000000000E+000
-6.9189435E-001	0.000000000000000E+000
-6.9223034E-001	0.000000000000000E+000
-6.9256252E-001	0.000000000000000E+000
-6.9158125E-001	0.000000000000000E+000
-6.9067252E-001	0.000000000000000E+000
-6.9258165E-001	0.000000000000000E+000
-6.9155073E-001	0.000000000000000E+000
-6.9192487E-001	0.000000000000000E+000
-6.9192487E-001	0.000000000000000E+000
-6.9208533E-001	0.000000000000000E+000
-6.9184852E-001	0.000000000000000E+000
-6.9112307E-001	0.000000000000000E+000
-6.9213486E-001	0.000000000000000E+000
-6.9159651E-001	0.000000000000000E+000
-6.9206238E-001	0.000000000000000E+000
-6.9037467E-001	0.000000000000000E+000
-6.9210052E-001	0.000000000000000E+000
-6.9130254E-001	0.000000000000000E+000
-6.9216925E-001	0.000000000000000E+000
-6.9247854E-001	0.000000000000000E+000
-6.9225711E-001	0.000000000000000E+000
-6.9159651E-001	0.000000000000000E+000
-6.9150108E-001	0.000000000000000E+000
-6.9215780E-001	0.000000000000000E+000
-6.9210052E-001	0.000000000000000E+000
-6.9120711E-001	0.000000000000000E+000
-6.9257778E-001	0.000000000000000E+000
-6.9156212E-001	0.000000000000000E+000
-6.9142085E-001	0.000000000000000E+000
-6.9224179E-001	0.000000000000000E+000
-6.9143617E-001	0.000000000000000E+000
-6.9061899E-001	0.000000000000000E+000
-6.9202417E-001	0.000000000000000E+000
-6.9199365E-001	0.000000000000000E+000
-6.9169199E-001	0.000000000000000E+000
-6.9133687E-001	0.000000000000000E+000
-6.9113070E-001	0.000000000000000E+000
-6.9191730E-001	0.000000000000000E+000
-6.9227999E-001	0.000000000000000E+000
-6.9152397E-001	0.000000000000000E+000
-6.9148964E-001	0.000000000000000E+000
-6.9153541E-001	0.000000000000000E+000
-6.9137508E-001	0.000000000000000E+000
-6.9123763E-001	0.000000000000000E+000
-6.9188672E-001	0.000000000000000E+000
-6.9181037E-001	0.000000000000000E+000
-6.9152015E-001	0.000000000000000E+000
-6.9152784E-001	0.000000000000000E+000
-6.9159275E-001	0.000000000000000E+000
-6.9207764E-001	0.000000000000000E+000
-6.9786620E-001	0.000000000000000E+000
-6.9726288E-001	0.000000000000000E+000
-7.9058194E-001	-4.009009685781271E-001
-7.8878111E-001	-4.032275902314324E-001
-7.8814435E-001	-3.968225505754912E-001
-7.8692329E-001	-3.898856500574013E-001
-7.8586543E-001	-3.834353557408434E-001
-7.8505599E-001	-3.772576611006162E-001
-7.8424734E-001	-3.713625285140543E-001
-7.8281868E-001	-3.656340674324730E-001
-7.8223580E-001	-3.601300037224533E-001
-7.8118432E-001	-3.547136881213024E-001
-7.8034019E-001	-3.494245295447360E-001
-7.7905297E-001	-3.443237887695441E-001
-7.7799910E-001	-3.392604032108473E-001
-7.7675712E-001	-3.341896919257659E-001
-7.7590173E-001	-3.293560479849476E-001
-7.7521259E-001	-3.244250066302437E-001
-7.7432954E-001	-3.196615340119169E-001
-7.7270126E-001	-3.148087208838022E-001
-7.7162141E-001	-3.100461711141249E-001
-7.7118069E-001	-3.053280809480281E-001
-7.7013236E-001	-3.005790211723740E-001
-7.6901215E-001	-2.960149446778280E-001
-7.6784176E-001	-2.915583528509291E-001
-7.6732320E-001	-2.868997764388483E-001
-7.6603001E-001	-2.823866315324005E-001
-7.6487714E-001	-2.779856253829274E-001
-7.6419508E-001	-2.733792168524678E-001
-7.6307857E-001	-2.689860239280040E-001
-7.6207983E-001	-2.646213802687116E-001
-7.6131719E-001	-2.603655496474220E-001
-7.6019996E-001	-2.559249063401849E-001
-7.5881571E-001	-2.514791560061176E-001
-7.5815350E-001	-2.472146405941915E-001
-7.5730777E-001	-2.429586155685017E-001
-7.5599617E-001	-2.386390718530048E-001
-7.5509340E-001	-2.344318838721060E-001
-7.5407076E-001	-2.302115762054382E-001
-7.5315034E-001	-2.260925203810618E-001
-7.5219911E-001	-2.218058189998073E-001
-7.5095856E-001	-2.176667545250810E-001
-7.5014216E-001	-2.136672185733914E-001
-7.4929172E-001	-2.095520169370704E-001
-7.4829149E-001	-2.055078050503920E-001
-7.4741822E-001	-2.013427968723360E-001
-7.4609584E-001	-1.972994127966197E-001
-7.4515450E-001	-1.933128615622248E-001
-7.4409270E-001	-1.893355003385624E-001
-7.4299365E-001	-1.853493693353667E-001
-7.4229580E-001	-1.813833214907037E-001
-7.4090892E-001	-1.774726176323980E-001
-7.3999071E-001	-1.734487404701883E-001
-7.3931581E-001	-1.695765451987050E-001
-7.3833984E-001	-1.657592355515122E-001
-7.3696512E-001	-1.619585458943060E-001
-7.3603737E-001	-1.578274828692281E-001
-7.3516273E-001	-1.541501879519604E-001
-7.3425651E-001	-1.503895774077191E-001
-7.3295325E-001	-1.466214974514317E-001
-7.3206127E-001	-1.428911814604095E-001
-7.3093271E-001	-1.389898533660596E-001
-7.2992748E-001	-1.351646231487398E-001
-7.2908127E-001	-1.314291843661559E-001
-7.2777772E-001	-1.277813592915209E-001
-7.2704232E-001	-1.241350452139691E-001
-7.2601449E-001	-1.203195912487521E-001
-7.2501284E-001	-1.167610555695260E-001
-7.2435510E-001	-1.132535288041385E-001
-7.2276849E-001	-1.094999699837577E-001
-7.2207987E-001	-1.059272239778055E-001
-7.2147888E-001	-1.022658843754067E-001
-7.2028810E-001	-9.874487438201784E-002
-7.1900558E-001	-9.528628440953302E-002
-7.1831053E-001	-9.164879966906647E-002
-7.1717304E-001	-8.818003508456193E-002
-7.1594018E-001	-8.465917285152313E-002
-7.1526712E-001	-8.119343001291979E-002
-7.1408170E-001	-7.776179296805608E-002
-7.1296167E-001	-7.431170314170940E-002
-7.1213025E-001	-7.089532683693500E-002
-7.1106446E-001	-6.738666367406643E-002
-7.1035260E-001	-6.405861547251246E-002
-7.0885366E-001	-6.073188120195949E-002
-7.0782465E-001	-5.743514799892335E-002
-7.0723426E-001	-5.410207338907103E-002
-7.0591617E-001	-5.085343436972378E-002
-7.0492911E-001	-4.731380144841291E-002
-7.0411170E-001	-4.417182575411122E-002
-7.0348048E-001	-4.047927682267638E-002
-7.0146024E-001	-3.673623897635406E-002
-7.0071381E-001	-3.339301097574082E-002
-7.0002514E-001	-3.020357633337245E-002
-6.9887352E-001	-2.702136044994125E-002
-6.9755560E-001	-2.376373096223848E-002
-6.9680297E-001	-2.038958505511770E-002
-6.9579399E-001	-1.710462206931510E-002
-6.9504881E-001	-1.414285008469141E-002
-6.9405586E-001	-1.098723614834143E-002
-6.9268996E-001	-7.823105953219878E-003
-6.9162887E-001	-4.585168684201744E-003
-6.9037473E-001	-1.026496400252795E-003
-6.8969315E-001	2.620874401515354E-003
-6.8876731E-001	5.969548802736591E-003
-6.8730623E-001	8.949269444673065E-003
-6.8626887E-001	1.225237517245659E-002
-6.8544561E-001	1.570002535677135E-002
-6.8437588E-001	1.884340736325180E-002
-6.8338603E-001	2.156846749777386E-002
-6.8223655E-001	2.475076707304205E-002
-6.8151379E-001	2.775334433583576E-002
-6.8029869E-001	3.071594192146282E-002
-6.7925507E-001	3.354267805763006E-002
-6.7830187E-001	3.658739815650142E-002
-6.7689323E-001	3.969692314233342E-002
-6.7601532E-001	4.279764336792535E-002
-6.7538971E-001	4.527108594631202E-002
-6.7428535E-001	4.840978178092165E-002
-6.7319798E-001	5.139209490476371E-002
-6.7216957E-001	5.425538192128243E-002
-6.7133969E-001	5.715131043904911E-002
-6.7002159E-001	6.005659090185156E-002
-6.6918111E-001	6.290590265524343E-002
-6.6802084E-001	6.570459397820128E-002
-6.6698945E-001	6.857077587818972E-002
-6.6634417E-001	7.146530061166878E-002
-6.6519129E-001	7.423807146821049E-002
-6.6405314E-001	7.699489640289953E-002
-6.6317290E-001	7.979455093542742E-002
-6.6203713E-001	8.251093920423791E-002
-6.6105413E-001	8.549007279455090E-002
-6.6029727E-001	8.807263219798056E-002
-6.5886110E-001	9.091553549433451E-002
-6.5838218E-001	9.384621974701646E-002
-6.5766841E-001	9.644869450238236E-002
-6.5603346E-001	9.925488714229846E-002
-6.5550655E-001	1.018373907405744E-001
-6.5407276E-001	1.045302187644497E-001
-6.5334165E-001	1.072357358010814E-001
-6.5211362E-001	1.101337688584736E-001
-6.5096295E-001	1.131425228303473E-001
-6.4994544E-001	1.159079254397910E-001
-6.4883393E-001	1.186805416795393E-001
-6.4797229E-001	1.214161254181949E-001
-6.4715064E-001	1.239077585438891E-001
-6.4564180E-001	1.265191011717191E-001
-6.4483207E-001	1.291188189287538E-001
-6.4397657E-001	1.316102113471262E-001
-6.4278597E-001	1.342826954916947E-001
-6.4169616E-001	1.369409998591754E-001
-6.4074206E-001	1.396043158170801E-001
-6.4004225E-001	1.422509067450406E-001
-6.3874847E-001	1.445396518754587E-001
-6.3790637E-001	1.473559732031491E-001
-6.3648206E-001	1.496045304605584E-001
-6.3595116E-001	1.522047661796760E-001
-6.3498598E-001	1.547507807370960E-001
-6.3386708E-001	1.573685220024288E-001
-6.3307118E-001	1.597539520374054E-001
-6.3137197E-001	1.624141527960701E-001
-6.3076550E-001	1.648702490778401E-001
-6.3019937E-001	1.673608152195816E-001
-6.2913257E-001	1.698537434761729E-001
-6.2802863E-001	1.722074472041046E-001
-6.2685174E-001	1.750072074916079E-001
-6.2597203E-001	1.773473672327333E-001
-6.2491822E-001	1.797090665146341E-001
-6.2400234E-001	1.823549920141145E-001
-6.2325567E-001	1.847020310516383E-001
-6.2234515E-001	1.871159737584769E-001
-6.2122273E-001	1.894336793468236E-001
-6.2015152E-001	1.918196388649292E-001
-6.1893666E-001	1.943259723656983E-001
-6.1789829E-001	1.968081277898613E-001
-6.1698329E-001	1.991344112578219E-001
-6.1606342E-001	2.014825888736920E-001
-6.1493468E-001	2.038538271078354E-001
-6.1406517E-001	2.061432479084104E-001
-6.1292905E-001	2.086802224318181E-001
-6.1189425E-001	2.106224377122201E-001
-6.1111021E-001	2.133397060594913E-001
-6.1021298E-001	2.158430913739182E-001
-6.0883021E-001	2.180460639316175E-001
-6.0803294E-001	2.201145243727489E-001
-6.0708028E-001	2.226444284811064E-001
-6.0518038E-001	2.249081549444072E-001
-6.0479605E-001	2.269925688634862E-001
-6.0376662E-001	2.292487109424899E-001
-6.0278094E-001	2.318550716207035E-001
-6.0170776E-001	2.342762224790120E-001
-6.0077834E-001	2.363600683639997E-001
-5.9995341E-001	2.387112642784091E-001
-5.9893322E-001	2.408977690739214E-001
-5.9794819E-001	2.431478549869919E-001
-5.9704792E-001	2.454315812706396E-001
-5.9595418E-001	2.477645668442596E-001
-5.9504569E-001	2.499607392863594E-001
-5.9374887E-001	2.521681871127202E-001
-5.9261888E-001	2.544650822119028E-001
-5.9184265E-001	2.566354640228852E-001
-5.9099573E-001	2.586801384265240E-001
-5.9005129E-001	2.608242718571869E-001
-5.8897513E-001	2.631647305532493E-001
-5.8819109E-001	2.652917895811022E-001
-5.8661973E-001	2.675005690091181E-001
-5.8588469E-001	2.697200820332872E-001
-5.8522409E-001	2.718585061461281E-001
-5.8402926E-001	2.742136017967445E-001
-5.8278954E-001	2.763232949224346E-001
-5.8225960E-001	2.784016692183073E-001
-5.8079070E-001	2.805514670414850E-001
-5.7991308E-001	2.825883363408075E-001
-5.7898295E-001	2.848846397742095E-001
-5.7793164E-001	2.869940413489352E-001
-5.7675534E-001	2.887991731986408E-001
-5.7605600E-001	2.912580121170598E-001
-5.7482654E-001	2.934629423801463E-001
-5.7403207E-001	2.956044122714694E-001
-5.7294291E-001	2.975081425665316E-001
-5.7221282E-001	3.000184977082192E-001
-5.7062548E-001	3.017127563900983E-001
-5.6972986E-001	3.039800779754689E-001
-5.6912029E-001	3.060870161280025E-001
-5.6787378E-001	3.080820142188007E-001
-5.6680346E-001	3.101361664986955E-001
-5.6585246E-001	3.122232525298996E-001
-5.6503236E-001	3.142113451052597E-001
-5.6386137E-001	3.160548605404667E-001
-5.6285441E-001	3.184904191574010E-001
-5.6205708E-001	3.203390219283322E-001
-5.6114316E-001	3.225133804026212E-001
-5.6002849E-001	3.244500673479500E-001
-5.5878925E-001	3.262992460862755E-001
-5.5806422E-001	3.284285867724694E-001
-5.5702305E-001	3.303909573221082E-001
-5.5596876E-001	3.325201582293073E-001
-5.5481368E-001	3.344160541892043E-001
-5.5385345E-001	3.366584681940292E-001
-5.5265129E-001	3.387461014941260E-001
-5.5176884E-001	3.405404407875958E-001
-5.5159998E-001	3.427256010127842E-001
-5.4987854E-001	3.444178952250172E-001
-5.4902369E-001	3.464559600516050E-001
-5.4796308E-001	3.484937353749515E-001
-5.4688478E-001	3.505882074195603E-001
-5.4604393E-001	3.524763094675194E-001
-5.4505491E-001	3.544025295607476E-001
-5.4383826E-001	3.562341892953815E-001
-5.4308689E-001	3.582715825350213E-001
-5.4195595E-001	3.601872742136134E-001
-5.4089183E-001	3.620844079112580E-001
-5.4039991E-001	3.640260250066163E-001
-5.3908938E-001	3.660856293783290E-001
-5.3810513E-001	3.678487073630121E-001
-5.3685248E-001	3.698909086071787E-001
-5.3617221E-001	3.716303111774842E-001
-5.3484011E-001	3.735467019939316E-001
-5.3413332E-001	3.756191298425229E-001
-5.3328788E-001	3.774121124297383E-001
-5.3213930E-001	3.792314642212471E-001
-5.3110510E-001	3.810948068993620E-001
-5.2997708E-001	3.828880724807568E-001
-5.2854693E-001	3.850094860557611E-001
-5.2805328E-001	3.867316976303723E-001
-5.2672303E-001	3.885506573650588E-001
-5.2579045E-001	3.903848336043723E-001
-5.2531976E-001	3.923723292273564E-001
-5.2404064E-001	3.941958386588986E-001
-5.2289706E-001	3.960663832172173E-001
-5.2173054E-001	3.979659265990030E-001
-5.2068841E-001	3.996678861892884E-001
-5.2032161E-001	4.017220841067966E-001
-5.1886445E-001	4.036811816471588E-001
-5.1780242E-001	4.052593877746009E-001
-5.1736671E-001	4.072215694457100E-001
-5.1546532E-001	4.091310921228617E-001
-5.1513129E-001	4.107829829057046E-001
-5.1415199E-001	4.127928570142818E-001
-5.1295722E-001	4.141562975667155E-001
-5.1179999E-001	4.161001218965761E-001
-5.1079565E-001	4.179930539350138E-001
-5.0979185E-001	4.197570887152793E-001
-5.0909120E-001	4.216474414699620E-001
-5.0843531E-001	4.234162685243898E-001
-5.0693303E-001	4.252359111689863E-001
-5.0576431E-001	4.266684458270804E-001
-5.0504929E-001	4.285082812248555E-001
-5.0412202E-001	4.303167578936744E-001
-5.0326723E-001	4.319771359999329E-001
-5.0215530E-001	4.340964715099984E-001
-5.0075877E-001	4.356661011913285E-001
-4.9987113E-001	4.375239694928448E-001
-4.9908170E-001	4.393157039389588E-001
-4.9778455E-001	4.410506151616578E-001
-4.9701789E-001	4.427646704686443E-001
-4.9603638E-001	4.445081455288120E-001
-4.9492025E-001	4.460773602305252E-001
-4.9380097E-001	4.479699569443882E-001
-4.9307281E-001	4.494640581585743E-001
-4.9191880E-001	4.511941352430533E-001
-4.9112737E-001	4.529135123723096E-001
-4.9020883E-001	4.548332381441635E-001
-4.8895341E-001	4.562987970305943E-001
-4.8830077E-001	4.581096618677716E-001
-4.8677793E-001	4.597265578944363E-001
-4.8602808E-001	4.615105285803267E-001
-4.8508325E-001	4.629737579574176E-001
-4.8374170E-001	4.646610211994933E-001
-4.8315516E-001	4.666180743711390E-001
-4.8213059E-001	4.683630516131720E-001
-4.8131701E-001	4.697677759604990E-001
-4.7993040E-001	4.713888486364379E-001
-4.7897923E-001	4.730365432936843E-001
-4.7809353E-001	4.748326091466826E-001
-4.7697103E-001	4.764351717851785E-001
-4.7616258E-001	4.779825383038432E-001
-4.7499254E-001	4.798717062304307E-001
-4.7390810E-001	4.811620585344443E-001
-4.7287250E-001	4.832258203101385E-001
-4.7234803E-001	4.846715339056382E-001
-4.7081742E-001	4.863764049692297E-001
-4.7000414E-001	4.882591815182451E-001
-4.6904406E-001	4.898627502228869E-001
-4.6819448E-001	4.913851553919146E-001
-4.6709085E-001	4.927771093083888E-001
-4.6609780E-001	4.945072280587968E-001
-4.6507004E-001	4.964072343513912E-001
-4.6399373E-001	4.976391392645416E-001
-4.6288937E-001	4.993673173227791E-001
-4.6179011E-001	5.007396294148974E-001
-4.6062863E-001	5.025060219599835E-001
-4.5972914E-001	5.040697378830767E-001
-4.5902932E-001	5.056167422207416E-001
-4.5821235E-001	5.072131892440455E-001
-4.5737809E-001	5.086830339084063E-001
-4.5584869E-001	5.102493807282409E-001
-4.5509669E-001	5.119186164466321E-001
-4.5382327E-001	5.136374166856212E-001
-4.5298216E-001	5.149338784341473E-001
-4.5205984E-001	5.166194461699991E-001
-4.5112693E-001	5.180971066432973E-001
-4.4976893E-001	5.196377771864258E-001
-4.4920251E-001	5.211682225129124E-001
-4.4781819E-001	5.226638182583789E-001
-4.4712982E-001	5.245122208031940E-001
-4.4623613E-001	5.259191220695225E-001
-4.4492769E-001	5.273485927394139E-001
-4.4398034E-001	5.289496927073722E-001
-4.4291571E-001	5.303135620499093E-001
-4.4172585E-001	5.319197628115475E-001
-4.4138071E-001	5.335704079242749E-001
-4.3981078E-001	5.350292776883752E-001
-4.3928796E-001	5.363384344953257E-001
-4.3803188E-001	5.379007044765700E-001
-4.3710822E-001	5.394757461078750E-001
-4.3575037E-001	5.408574420104886E-001
-4.3482172E-001	5.424720525603606E-001
-4.3427891E-001	5.439176050325250E-001
-4.3286955E-001	5.455230414281331E-001
-4.3194169E-001	5.469183339564876E-001
-4.3090245E-001	5.483315673277351E-001
-4.2972684E-001	5.500405279082656E-001
-4.2873070E-001	5.511323704073821E-001
-4.2759639E-001	5.528956196701067E-001
-4.2701417E-001	5.541965251581527E-001
-4.2631394E-001	5.559633875748657E-001
-4.2483801E-001	5.572682155220985E-001
-4.2414686E-001	5.587388816531047E-001
-4.2299670E-001	5.601194498853552E-001
-4.2170918E-001	5.616888833025371E-001
-4.2104128E-001	5.633897590968360E-001
-4.1975686E-001	5.646936429871463E-001
-4.1901496E-001	5.658964031371694E-001
-4.1799471E-001	5.672798325756094E-001
-4.1687900E-001	5.688168459788416E-001
-4.1581556E-001	5.702728173109133E-001
-4.1508791E-001	5.716770768717492E-001
-4.1407204E-001	5.731773793688699E-001
-4.1282752E-001	5.744701467316435E-001
-4.1189459E-001	5.759750594971357E-001
-4.1092956E-001	5.772376506771568E-001
-4.0994427E-001	5.787708321241318E-001
-4.0892118E-001	5.801213398851740E-001
-4.0792906E-001	5.817235628370394E-001
-4.0699700E-001	5.829042915116869E-001
-4.0563047E-001	5.844719393385783E-001
-4.0497622E-001	5.860111271413651E-001
-4.0400091E-001	5.870483345869513E-001
-4.0302035E-001	5.887896609366798E-001
-4.0200666E-001	5.902904685310713E-001
-4.0096366E-001	5.919924973751691E-001
-3.9983395E-001	5.935597271560438E-001
-3.9887825E-001	5.949845706561092E-001
-3.9796373E-001	5.961770351148319E-001
-3.9689580E-001	5.976435721935669E-001
-3.9579391E-001	5.989233430612959E-001
-3.9473158E-001	6.004431154578915E-001
-3.9389086E-001	6.014446588925395E-001
-3.9312616E-001	6.028173590699826E-001
-3.9192596E-001	6.040981573363169E-001
-3.9119816E-001	6.056174681658448E-001
-3.8991624E-001	6.069800130746978E-001
-3.8903230E-001	6.082434187854897E-001
-3.8804829E-001	6.092786162539778E-001
-3.8692206E-001	6.109250151310812E-001
-3.8578764E-001	6.120246474111877E-001
-3.8487336E-001	6.132951429872602E-001
-3.8397986E-001	6.147481009916014E-001
-3.8293037E-001	6.160294249358511E-001
-3.8200963E-001	6.171241464714199E-001
-3.8055846E-001	6.184255929180873E-001
-3.8049972E-001	6.197543279562279E-001
-3.7935317E-001	6.213797352932116E-001
-3.7821203E-001	6.222806004315875E-001
-3.7717354E-001	6.235843766480675E-001
-3.7620795E-001	6.249449921564922E-001
-3.7493828E-001	6.260933140027944E-001
-3.7431684E-001	6.273389419333797E-001
-3.7313509E-001	6.287754966566972E-001
-3.7219158E-001	6.301384366761820E-001
-3.7106258E-001	6.311439239178538E-001
-3.6993644E-001	6.325802622293981E-001
-3.6918128E-001	6.340993694255976E-001
-3.6791313E-001	6.352368650475038E-001
-3.6716285E-001	6.364503315201500E-001
-3.6601606E-001	6.374695786993314E-001
-3.6505982E-001	6.389346047546054E-001
-3.6397752E-001	6.404626977050603E-001
-3.6283273E-001	6.414511821198259E-001
-3.6212674E-001	6.427841205149896E-001
-3.6078733E-001	6.440618105860620E-001
-3.5980505E-001	6.453649478930039E-001
-3.5931942E-001	6.466447025951405E-001
-3.5803419E-001	6.476350311924692E-001
-3.5700130E-001	6.491011183846851E-001
-3.5590968E-001	6.503616599711026E-001
-3.5461861E-001	6.515916032413438E-001
-3.5372838E-001	6.527520539583982E-001
-3.5283661E-001	6.540898230202785E-001
-3.5208377E-001	6.551541711703175E-001
-3.5092023E-001	6.561726321362802E-001
-3.5010093E-001	6.577656316233362E-001
-3.4904248E-001	6.589079304011864E-001
-3.4772328E-001	6.601326059963988E-001
-3.4674990E-001	6.612056016998702E-001
-3.4626511E-001	6.624158542189349E-001
-3.4469536E-001	6.636197177210370E-001
-3.4411865E-001	6.647938680061145E-001
-3.4314007E-001	6.658050470330110E-001
-3.4190482E-001	6.668427475486638E-001
-3.4118202E-001	6.683498563298511E-001
-3.3982381E-001	6.694874104664263E-001
-3.3894679E-001	6.705875819858722E-001
-3.3783472E-001	6.718427570605703E-001
-3.3690095E-001	6.731694513173014E-001
-3.3617640E-001	6.742727892149123E-001
-3.3502916E-001	6.754989577802224E-001
-3.3410150E-001	6.766512577456467E-001
-3.3276397E-001	6.779984839576595E-001
-3.3216286E-001	6.790601130988874E-001
-3.3076900E-001	6.800269660436449E-001
-3.2979965E-001	6.814423631350621E-001
-3.2885751E-001	6.823660832036431E-001
-3.2787472E-001	6.834831629638316E-001
-3.2714054E-001	6.847868510124520E-001
-3.2598442E-001	6.859569683395046E-001
-3.2508916E-001	6.875169346492789E-001
-3.2397369E-001	6.885880074567243E-001
-3.2293063E-001	6.900174697102219E-001
-3.2209900E-001	6.907600937952605E-001
-3.2134482E-001	6.919952525446833E-001
-3.1990996E-001	6.928673527996860E-001
-3.1903210E-001	6.940804154242577E-001
-3.1775200E-001	6.954089416259960E-001
-3.1690243E-001	6.963883556287591E-001
-3.1602827E-001	6.976070597634116E-001
-3.1482700E-001	6.987311203998550E-001
-3.1403470E-001	6.997140774296389E-001
-3.1288940E-001	7.009132736858881E-001
-3.1185570E-001	7.020029747789653E-001
-3.1079000E-001	7.034653005896949E-001
-3.0999619E-001	7.043423328410690E-001
-3.0892265E-001	7.056536148819648E-001
-3.0790988E-001	7.068263235629439E-001
-3.0693880E-001	7.078445330952050E-001
-3.0571163E-001	7.088451003310876E-001
-3.0536145E-001	7.099413823013268E-001
-3.0386868E-001	7.113077910961927E-001
-3.0327982E-001	7.121844004011795E-001
-3.0202824E-001	7.135417863126889E-001
-3.0109170E-001	7.144125910406878E-001
-3.0021834E-001	7.156114696751494E-001
-2.9933447E-001	7.166207020205455E-001
-2.9807973E-001	7.178126281748227E-001
-2.9696298E-001	7.188168444159793E-001
-2.9593769E-001	7.199142255854802E-001
-2.9490227E-001	7.208187329686382E-001
-2.9406255E-001	7.218069655669268E-001
-2.9304317E-001	7.230912413862021E-001
-2.9169977E-001	7.239352875837568E-001
-2.9095891E-001	7.250360535000038E-001
-2.8996649E-001	7.262808406656536E-001
-2.8916106E-001	7.273773470272626E-001
-2.8777099E-001	7.282942660188905E-001
-2.8696829E-001	7.294364294244176E-001
-2.8612921E-001	7.306341907986891E-001
-2.8497896E-001	7.313247372706733E-001
-2.8406703E-001	7.325703801794177E-001
-2.8276631E-001	7.335043615730967E-001
-2.8208745E-001	7.345582291621828E-001
-2.8108305E-001	7.356085292305110E-001
-2.7994052E-001	7.364946886629440E-001
-2.7885145E-001	7.377021454826540E-001
-2.7792829E-001	7.386040919356844E-001
-2.7687341E-001	7.394129349703586E-001
-2.7623126E-001	7.407999869987947E-001
-2.7511674E-001	7.419395778169573E-001
-2.7408621E-001	7.427834731837111E-001
-2.7329159E-001	7.438254399846023E-001
-2.7204889E-001	7.446743939092935E-001
-2.7101886E-001	7.457827682848333E-001
-2.7013958E-001	7.470733074954277E-001
-2.6898658E-001	7.476067350168627E-001
-2.6786900E-001	7.490907670171136E-001
-2.6689720E-001	7.500103477526601E-001
-2.6594406E-001	7.507679277475408E-001
-2.6505256E-001	7.517969635211768E-001
-2.6358801E-001	7.527950022507621E-001
-2.6284412E-001	7.539746719728306E-001
-2.6205328E-001	7.545748684831253E-001
-2.6055267E-001	7.558269512733982E-001
-2.5988704E-001	7.566571797899631E-001
-2.5924301E-001	7.576597404010852E-001
-2.5816137E-001	7.586935162231645E-001
-2.5713214E-001	7.596951948685735E-001
-2.5593847E-001	7.607097897540651E-001
-2.5503716E-001	7.617685945292081E-001
-2.5413308E-001	7.625055615272771E-001
-2.5300732E-001	7.635648604482395E-001
-2.5189802E-001	7.645981059912668E-001
-2.5098297E-001	7.654459337117485E-001
-2.5004646E-001	7.665607978210409E-001
-2.4888399E-001	7.676965993785601E-001
-2.4786407E-001	7.688611605101148E-001
-2.4708563E-001	7.691770584843241E-001
-2.4640591E-001	7.703458293582557E-001
-2.4496174E-001	7.713584700530305E-001
-2.4403048E-001	7.723455706549416E-001
-2.4305578E-001	7.730890204785066E-001
-2.4192515E-001	7.742167587081603E-001
-2.4103254E-001	7.749727853749997E-001
-2.4018337E-001	7.760098464787006E-001
-2.3905864E-001	7.765171002182689E-001
-2.3825176E-001	7.776036412488168E-001
-2.3682177E-001	7.785497436782833E-001
-2.3594131E-001	7.796702298072189E-001
-2.3517844E-001	7.806898411363359E-001
-2.3402785E-001	7.816070500347347E-001
-2.3331538E-001	7.824356302896511E-001
-2.3201245E-001	7.833980094227506E-001
-2.3082006E-001	7.840833568738574E-001
-2.3030658E-001	7.851638014118603E-001
-2.2922595E-001	7.860536913352956E-001
-2.2795846E-001	7.868492279063766E-001
-2.2718351E-001	7.877802272944094E-001
-2.2584036E-001	7.885379562223367E-001
-2.2468109E-001	7.893771286363958E-001
-2.2432224E-001	7.907310097647051E-001
-2.2300401E-001	7.914472367200602E-001
-2.2210035E-001	7.926222275574517E-001
-2.2091158E-001	7.931588136211598E-001
-2.2026311E-001	7.941374077841088E-001
-2.1885256E-001	7.951187385407090E-001
-2.1790533E-001	7.959178452966391E-001
-2.1696560E-001	7.969551112640811E-001
-2.1626525E-001	7.975748473896385E-001
-2.1494868E-001	7.982174512688776E-001
-2.1395762E-001	7.987677957172732E-001
-2.1320039E-001	8.000599464930023E-001
-2.1186286E-001	8.010291795211781E-001
-2.1090195E-001	8.018482073589581E-001
-2.1018346E-001	8.027930778125842E-001
-2.0867395E-001	8.038616475683682E-001
-2.0806733E-001	8.044715582271578E-001
-2.0698501E-001	8.054113931677982E-001
-2.0582213E-001	8.062383591852806E-001
-2.0482023E-001	8.070190443388405E-001
-2.0403388E-001	8.078805010903753E-001
-2.0320277E-001	8.086102189565167E-001
-2.0207979E-001	8.093657676878578E-001
-2.0083626E-001	8.102882819043220E-001
-2.0060401E-001	8.114134151902510E-001
-1.9894925E-001	8.122278570603161E-001
-1.9815242E-001	8.126547597348690E-001
-1.9737764E-001	8.139074078594319E-001
-1.9618836E-001	8.145385064460626E-001
-1.9496141E-001	8.155351551594521E-001
-1.9397214E-001	8.161617035388860E-001
-1.9298883E-001	8.176149458244986E-001
-1.9180068E-001	8.181209206857041E-001
-1.9107759E-001	8.188669163903155E-001
-1.9032004E-001	8.194642446383256E-001
-1.8921125E-001	8.202299156950570E-001
-1.8783365E-001	8.212266143901132E-001
-1.8739671E-001	8.220863692738387E-001
-1.8632887E-001	8.231558561049113E-001
-1.8481454E-001	8.238033248161898E-001
-1.8369742E-001	8.246663604621514E-001
-1.8316790E-001	8.257336894123064E-001
-1.8209863E-001	8.265377761865107E-001
-1.8098348E-001	8.273205288030496E-001
-1.8014416E-001	8.280218524887744E-001
-1.7907031E-001	8.289429804793116E-001
-1.7779924E-001	8.297394823144977E-001
-1.7729084E-001	8.304203768275178E-001
-1.7590748E-001	8.311186438357383E-001
-1.7504625E-001	8.322206451385110E-001
-1.7393975E-001	8.329855348235604E-001
-1.7313263E-001	8.338793103617625E-001
-1.7209683E-001	8.347393048030334E-001
-1.7065160E-001	8.352917281733792E-001
-1.6999570E-001	8.360776614259766E-001
-1.6909866E-001	8.368293058182127E-001
-1.6818880E-001	8.374999576696638E-001
-1.6718097E-001	8.381443236161150E-001
-1.6585352E-001	8.388680441747596E-001
-1.6542690E-001	8.396592827306861E-001
-1.6379035E-001	8.403739316595940E-001
-1.6285463E-001	8.413260125916633E-001
-1.6163830E-001	8.424863215121962E-001
-1.6106556E-001	8.429307032514473E-001
-1.5999047E-001	8.430099932461275E-001
-1.5882424E-001	8.426604832488072E-001
-1.5809663E-001	8.431839645720594E-001
-1.5712614E-001	8.440257143919077E-001
-1.5614992E-001	8.455429335159330E-001
-1.5507618E-001	8.463144959701965E-001
-1.5397541E-001	8.470686261576645E-001
-1.5314516E-001	8.479028658734435E-001
-1.5209351E-001	8.488267131275076E-001
-1.5091081E-001	8.496610489156515E-001
-1.5000248E-001	8.503164454466834E-001
-1.4878820E-001	8.515703691468590E-001
-1.4823568E-001	8.517427131257698E-001
-1.4705391E-001	8.526992675054963E-001
-1.4614351E-001	8.533791698662583E-001
-1.4511549E-001	8.542160727083719E-001
-1.4401832E-001	8.550603139974449E-001
-1.4341719E-001	8.557021724129159E-001
-1.4201802E-001	8.564618471320049E-001
-1.4110491E-001	8.567574073427258E-001
-1.4001404E-001	8.577178760811144E-001
-1.3914539E-001	8.585591416944007E-001
-1.3794295E-001	8.590962389495296E-001
-1.3723539E-001	8.600128992564153E-001
-1.3587289E-001	8.608443095452247E-001
-1.3539326E-001	8.616481684922661E-001
-1.3403398E-001	8.621196560561728E-001
-1.3323104E-001	8.628061837344241E-001
-1.3225825E-001	8.634042749346384E-001
-1.3104403E-001	8.642570623369146E-001
-1.2977733E-001	8.647574308995951E-001
-1.2891999E-001	8.658208201328890E-001
-1.2808760E-001	8.663643884162120E-001
-1.2714285E-001	8.670381063665786E-001
-1.2621175E-001	8.678608140735715E-001
-1.2529515E-001	8.685050841282909E-001
-1.2403763E-001	8.693092988561015E-001
-1.2316751E-001	8.699042312800929E-001
-1.2214930E-001	8.702590704240194E-001
-1.2103946E-001	8.711771142961933E-001
-1.2012582E-001	8.718906049099180E-001
-1.1902706E-001	8.725459858484630E-001
-1.1799841E-001	8.734555563165074E-001
-1.1724684E-001	8.738942604373978E-001
-1.1610647E-001	8.746554438485425E-001
-1.1499360E-001	8.751296447934900E-001
-1.1416249E-001	8.757623439585764E-001
-1.1289202E-001	8.765964235570891E-001
-1.1175018E-001	8.771781019038585E-001
-1.1120841E-001	8.778573724406691E-001
-1.1034396E-001	8.786712752403316E-001
-1.0889453E-001	8.791821174047598E-001
-1.0840621E-001	8.794519759162700E-001
-1.0708206E-001	8.804279560996547E-001
-1.0596462E-001	8.811168884513521E-001
-1.0500015E-001	8.817114579407388E-001
-1.0431978E-001	8.822817843821325E-001
-1.0278907E-001	8.829976685897076E-001
-1.0246787E-001	8.834159843500249E-001
-1.0122889E-001	8.841064902091489E-001
-1.0007022E-001	8.852328448383879E-001
-9.9247046E-002	8.859564551994570E-001
-9.8244242E-002	8.858876331812828E-001
-9.7045727E-002	8.867858155734112E-001
-9.6155837E-002	8.874950779258128E-001
-9.5054477E-002	8.880361950507887E-001
-9.3995757E-002	8.886086339199990E-001
-9.3023352E-002	8.891209554761019E-001
-9.2337757E-002	8.896833385030423E-001
-9.1015942E-002	8.904103397297867E-001
-9.0280555E-002	8.909440425535031E-001
-8.8848263E-002	8.914724333142807E-001
-8.8243894E-002	8.921007822284768E-001
-8.7102033E-002	8.930106182341229E-001
-8.6222760E-002	8.932010916372128E-001
-8.5031271E-002	8.941008378250626E-001
-8.3935387E-002	8.946447649763662E-001
-8.3187647E-002	8.950479872248760E-001
-8.2323514E-002	8.958944918595648E-001
-8.1155673E-002	8.963919619995160E-001
-8.0131963E-002	8.970583482915657E-001
-7.9124980E-002	8.974234814997075E-001
-7.8097649E-002	8.979403778082791E-001
-7.7151604E-002	8.987430789149959E-001
-7.6216929E-002	8.989853289116312E-001
-7.5228207E-002	8.999309732958132E-001
-7.3726878E-002	9.009406007195051E-001
-7.2849624E-002	9.008244545095465E-001
-7.2178870E-002	9.014480965280995E-001
-7.1278781E-002	9.021633049145947E-001
-6.9878146E-002	9.031533727215422E-001
-6.9415279E-002	9.034411854766029E-001
-6.8123028E-002	9.040040639604729E-001
-6.7162909E-002	9.042767566387351E-001
-6.5721080E-002	9.049943992903842E-001
-6.4836293E-002	9.055981939589515E-001
-6.4072214E-002	9.059726671764166E-001
-6.3268021E-002	9.064546726321314E-001
-6.1811358E-002	9.069665583471460E-001
-6.1153125E-002	9.076107820426973E-001
-6.0094722E-002	9.082416285786894E-001
-5.9345376E-002	9.086853598278992E-001
-5.8258433E-002	9.092187732458124E-001
-5.7117492E-002	9.096429653101197E-001
-5.5791821E-002	9.102799082519795E-001
-5.4891758E-002	9.109437028291083E-001
-5.4010157E-002	9.113471458775488E-001
-5.3316716E-002	9.119848855943609E-001
-5.2461207E-002	9.124734916776793E-001
-5.0814036E-002	9.130783374938680E-001
-4.9940065E-002	9.140960814224322E-001
-4.9037576E-002	9.148055106908402E-001
-4.7949888E-002	9.147791064999691E-001
-4.7087803E-002	9.151426284677449E-001
-4.6293993E-002	9.156177195683615E-001
-4.4974592E-002	9.160835469762496E-001
-4.3920524E-002	9.163291750958695E-001
-4.3157481E-002	9.171210753704280E-001
-4.2288844E-002	9.174974379992058E-001
-4.0853783E-002	9.180410419897109E-001
-4.0105630E-002	9.185287956562334E-001
-3.9234418E-002	9.191636779793946E-001
-3.7765775E-002	9.198097235388403E-001
-3.7010692E-002	9.202263694670485E-001
-3.5883445E-002	9.204604203502313E-001
-3.5241507E-002	9.208926632238050E-001
-3.3885840E-002	9.216534311848719E-001
-3.2887358E-002	9.222098884207259E-001
-3.2332357E-002	9.225786178794309E-001
-3.1223854E-002	9.232788879286371E-001
-3.0002424E-002	9.235214141231998E-001
-2.8898643E-002	9.238156515054374E-001
-2.8301798E-002	9.246110324230504E-001
-2.7029132E-002	9.248998945693252E-001
-2.6183069E-002	9.253837660782871E-001
-2.5450168E-002	9.262643132220827E-001
-2.3608185E-002	9.265489163628935E-001
-2.2977825E-002	9.269228071250337E-001
-2.2200376E-002	9.274049049450301E-001
-2.1140508E-002	9.277381574923407E-001
-2.0256227E-002	9.282460920512694E-001
-1.9223593E-002	9.286477674764608E-001
-1.8033387E-002	9.293372236406938E-001
-1.6878735E-002	9.296461023666183E-001
-1.6100865E-002	9.301169954792243E-001
-1.5099200E-002	9.307456634122908E-001
-1.4075049E-002	9.309042125112479E-001
-1.3319770E-002	9.314163143731413E-001
-1.1984957E-002	9.322110810489566E-001
-1.1386757E-002	9.325213153605105E-001
-9.8109413E-003	9.331361875509181E-001
-8.7474678E-003	9.333937417853697E-001
-8.2638171E-003	9.336808710186553E-001
-7.3564420E-003	9.343595880654263E-001
-5.8334735E-003	9.347534982694548E-001
-4.7219256E-003	9.352096341274432E-001
-3.5849118E-003	9.355717536866095E-001
-3.1700016E-003	9.361232973083276E-001
-2.0227917E-003	9.369125514263006E-001
-1.1810948E-003	9.372361518994516E-001
8.3184706E-005	9.375120787708866E-001
9.5265772E-004	9.378319762193641E-001
1.8605995E-003	9.385376597444217E-001
2.8499612E-003	9.390607329982279E-001
3.8303658E-003	9.394774221246713E-001
5.3371545E-003	9.397129524085255E-001
5.7756216E-003	9.404777811357281E-001
6.7970585E-003	9.408877337722146E-001
6.8265027E-003	9.411158995194864E-001