EC-Lab ASCII FILE
Nb header lines : 63                          

Linear Sweep Voltammetry

Run on channel : 6 (SN 13765)
User : 
Electrode connection : standard
Potential control : Ewe
Ewe ctrl range : min = -2.50 V, max = 2.50 V
Ewe,I filtering : <None>
Safety Limits :
	Do not start on E overload
Channel : Floating
Acquisition started on : 07/17/2026 14:56:19.048
Technique started on : 07/17/2026 14:56:20.045
Loaded Setting File :  C:\Users\EEM-620\Desktop\Wade\abao\20260629\N719_0629-0-1_C06.mpr
Saved on :
	File : N719_0717-k-2_C06.mpr
	Directory : C:\Users\EEM-620\Desktop\Wade\abao\20260717\
	Host : 192.109.209.200
Device : VSP-300 (SN 0025)
Address : 192.109.209.129
EC-LAB for windows v11.62 (software)
Internet server v27.00 (firmware)
Command interpretor v12.02 (firmware)
Electrode material : Au/Pd
Initial state : 
Electrolyte : NaCl (0.2M)
Comments : Fe(CN)63-/Fe(CN)64- 5.10-3 M
Cable : ULC
Reference electrode : SCE Saturated Calomel Electrode (0.241 V)
Electrode surface area : 0.001 cm2
Characteristic mass : 0.001 g
Equivalent Weight : 0.000 g/eq.
Density : 0.000 g/cm3
Volume (V) : 0.001 cm3
Cycle Definition : Charge/Discharge alternance
tR (h:m:s)          0:00:5.0000         
dER/dt (mV/h)       0.0                 
dER (mV)            0                   
dtR (s)             0.0500              
dE/dt               10.000              
dE/dt unit          mV/s                
Ei (V)              -0.800              
vs.                 Ref                 
EL (V)              0.010               
vs.                 Ref                 
record              <I>                 
dI                  0.000               
unit dI             uA                  
tI (s)              0.0000              
step percent        50                  
N                   10                  
E range min (V)     -2.500              
E range max (V)     2.500               
I Range             Auto                
I Range min         Unset               
I Range max         Unset               
I Range init        Unset               
Bandwidth           8                   

Ewe/V	<I>/mA	
-5.8191228E-001	0.000000000000000E+000
-5.8237809E-001	0.000000000000000E+000
-5.8213371E-001	0.000000000000000E+000
-5.8233607E-001	0.000000000000000E+000
-5.8221388E-001	0.000000000000000E+000
-5.8184355E-001	0.000000000000000E+000
-5.8174044E-001	0.000000000000000E+000
-5.8315319E-001	0.000000000000000E+000
-5.8219862E-001	0.000000000000000E+000
-5.8073241E-001	0.000000000000000E+000
-5.8251935E-001	0.000000000000000E+000
-5.8295846E-001	0.000000000000000E+000
-5.8217192E-001	0.000000000000000E+000
-5.8238572E-001	0.000000000000000E+000
-5.8291650E-001	0.000000000000000E+000
-5.8208793E-001	0.000000000000000E+000
-5.8236665E-001	0.000000000000000E+000
-5.8122498E-001	0.000000000000000E+000
-5.8217955E-001	0.000000000000000E+000
-5.8276373E-001	0.000000000000000E+000
-5.8237046E-001	0.000000000000000E+000
-5.8203065E-001	0.000000000000000E+000
-5.8318377E-001	0.000000000000000E+000
-5.8185881E-001	0.000000000000000E+000
-5.8194667E-001	0.000000000000000E+000
-5.8176333E-001	0.000000000000000E+000
-5.8264536E-001	0.000000000000000E+000
-5.8243537E-001	0.000000000000000E+000
-5.8087748E-001	0.000000000000000E+000
-5.8130896E-001	0.000000000000000E+000
-5.8202296E-001	0.000000000000000E+000
-5.8191228E-001	0.000000000000000E+000
-5.8200008E-001	0.000000000000000E+000
-5.8224064E-001	0.000000000000000E+000
-5.8243155E-001	0.000000000000000E+000
-5.8253080E-001	0.000000000000000E+000
-5.8266068E-001	0.000000000000000E+000
-5.8272177E-001	0.000000000000000E+000
-5.8271027E-001	0.000000000000000E+000
-5.8151132E-001	0.000000000000000E+000
-5.8184737E-001	0.000000000000000E+000
-5.8188170E-001	0.000000000000000E+000
-5.8215660E-001	0.000000000000000E+000
-5.8205354E-001	0.000000000000000E+000
-5.8089662E-001	0.000000000000000E+000
-5.8253080E-001	0.000000000000000E+000
-5.8185118E-001	0.000000000000000E+000
-5.8176714E-001	0.000000000000000E+000
-5.8223301E-001	0.000000000000000E+000
-5.8191991E-001	0.000000000000000E+000
-5.8270264E-001	0.000000000000000E+000
-5.8261102E-001	0.000000000000000E+000
-5.8207643E-001	0.000000000000000E+000
-5.8283627E-001	0.000000000000000E+000
-5.8246207E-001	0.000000000000000E+000
-5.8230174E-001	0.000000000000000E+000
-5.8227885E-001	0.000000000000000E+000
-5.8138531E-001	0.000000000000000E+000
-5.8210701E-001	0.000000000000000E+000
-5.8254993E-001	0.000000000000000E+000
-5.8179009E-001	0.000000000000000E+000
-5.8640260E-001	0.000000000000000E+000
-5.8741057E-001	0.000000000000000E+000
-7.8907758E-001	-2.503077061971030E+000
-7.8868639E-001	-2.493300396535130E+000
-7.8771031E-001	-2.475313852506652E+000
-7.8665775E-001	-2.460283916523537E+000
-7.8571612E-001	-2.444546406743694E+000
-7.8472102E-001	-2.429746651815037E+000
-7.8363991E-001	-2.415953872646779E+000
-7.8285134E-001	-2.401787007572484E+000
-7.8177172E-001	-2.388597263506163E+000
-7.8062165E-001	-2.375140887767607E+000
-7.7969736E-001	-2.361816813548401E+000
-7.7888280E-001	-2.348376752362046E+000
-7.7767628E-001	-2.335460400415780E+000
-7.7675390E-001	-2.323370896279812E+000
-7.7581954E-001	-2.310642408295728E+000
-7.7492326E-001	-2.298058985560035E+000
-7.7384460E-001	-2.285482127081465E+000
-7.7282619E-001	-2.273540280378636E+000
-7.7187163E-001	-2.260780621182032E+000
-7.7079576E-001	-2.247363634407520E+000
-7.6974225E-001	-2.235339150867317E+000
-7.6874387E-001	-2.222643851957945E+000
-7.6760703E-001	-2.210030497585038E+000
-7.6695216E-001	-2.198002042041871E+000
-7.6574326E-001	-2.186161438072155E+000
-7.6469928E-001	-2.173262675894215E+000
-7.6376027E-001	-2.160699872782931E+000
-7.6286429E-001	-2.148489769686158E+000
-7.6161939E-001	-2.135708778230363E+000
-7.6065540E-001	-2.124627182329142E+000
-7.5967681E-001	-2.111660254222377E+000
-7.5873083E-001	-2.098345359953349E+000
-7.5790370E-001	-2.085729645358196E+000
-7.5674313E-001	-2.073462547803373E+000
-7.5570989E-001	-2.060983185966800E+000
-7.5487089E-001	-2.049012386964421E+000
-7.5379765E-001	-2.036188530177768E+000
-7.5280774E-001	-2.023062920956692E+000
-7.5180262E-001	-2.011232795814671E+000
-7.5069398E-001	-1.999164957657886E+000
-7.4967211E-001	-1.986358959365788E+000
-7.4873489E-001	-1.974627772415133E+000
-7.4776095E-001	-1.961728854856222E+000
-7.4677074E-001	-1.949384742037019E+000
-7.4591517E-001	-1.937355916809160E+000
-7.4502766E-001	-1.924999052366193E+000
-7.4386108E-001	-1.912794954522886E+000
-7.4279189E-001	-1.900374910704642E+000
-7.4181694E-001	-1.888502426445474E+000
-7.4072832E-001	-1.875212501872468E+000
-7.3979169E-001	-1.863525452190835E+000
-7.3907417E-001	-1.851717046289533E+000
-7.3775733E-001	-1.839005219991559E+000
-7.3674488E-001	-1.827549253518953E+000
-7.3587424E-001	-1.814775733208210E+000
-7.3480487E-001	-1.802988483949942E+000
-7.3392785E-001	-1.790626543797966E+000
-7.3277247E-001	-1.778043955564499E+000
-7.3167455E-001	-1.765650059889866E+000
-7.3083204E-001	-1.753862380780399E+000
-7.2976565E-001	-1.741438860142668E+000
-7.2900826E-001	-1.729738912377915E+000
-7.2780365E-001	-1.717850338529662E+000
-7.2675061E-001	-1.704950996295167E+000
-7.2591037E-001	-1.692973268069440E+000
-7.2501564E-001	-1.680747505967261E+000
-7.2378719E-001	-1.668556729124653E+000
-7.2284925E-001	-1.656275775024911E+000
-7.2179151E-001	-1.644593910762559E+000
-7.2093540E-001	-1.632297059452100E+000
-7.1963859E-001	-1.620205240188696E+000
-7.1877527E-001	-1.608053754325262E+000
-7.1786737E-001	-1.595653829475253E+000
-7.1688187E-001	-1.583989397351191E+000
-7.1578974E-001	-1.571588970444822E+000
-7.1481937E-001	-1.559564313967357E+000
-7.1386290E-001	-1.547311729165145E+000
-7.1290720E-001	-1.535962038707950E+000
-7.1193635E-001	-1.523664835320643E+000
-7.1084291E-001	-1.511714817887099E+000
-7.0973295E-001	-1.499557245246789E+000
-7.0875233E-001	-1.487467932469183E+000
-7.0772988E-001	-1.475665130411041E+000
-7.0676637E-001	-1.463046004926717E+000
-7.0585907E-001	-1.451123642701546E+000
-7.0487541E-001	-1.439439443664419E+000
-7.0383662E-001	-1.427136917640842E+000
-7.0281094E-001	-1.415229259817686E+000
-7.0159680E-001	-1.402632184188668E+000
-7.0082867E-001	-1.391194955372331E+000
-6.9977820E-001	-1.379102612535164E+000
-6.9881469E-001	-1.367190802814779E+000
-6.9774675E-001	-1.354974299151976E+000
-6.9692123E-001	-1.343194157850967E+000
-6.9574696E-001	-1.331077937726623E+000
-6.9494969E-001	-1.319364940091386E+000
-6.9383466E-001	-1.307784522573151E+000
-6.9292927E-001	-1.295963285835803E+000
-6.9175166E-001	-1.283499560543174E+000
-6.9086689E-001	-1.271803473984752E+000
-6.8974453E-001	-1.259875631785285E+000
-6.8901438E-001	-1.247830312285156E+000
-6.8782252E-001	-1.235830583782111E+000
-6.8670547E-001	-1.224027011766561E+000
-6.8595070E-001	-1.211840429239803E+000
-6.8503976E-001	-1.200406872701862E+000
-6.8372321E-001	-1.188229097384382E+000
-6.8293035E-001	-1.176672330885026E+000
-6.8180084E-001	-1.164580662907273E+000
-6.8099797E-001	-1.152679960393261E+000
-6.7991585E-001	-1.140884017502815E+000
-6.7900354E-001	-1.128996770828962E+000
-6.7804933E-001	-1.117205759429408E+000
-6.7686695E-001	-1.105973577747745E+000
-6.7591912E-001	-1.093274195068620E+000
-6.7487782E-001	-1.081760190151357E+000
-6.7369950E-001	-1.069636933367564E+000
-6.7287093E-001	-1.057901773983311E+000
-6.7174977E-001	-1.046442177698568E+000
-6.7099696E-001	-1.034237237164268E+000
-6.6979468E-001	-1.022891146491560E+000
-6.6891557E-001	-1.010909228827115E+000
-6.6773146E-001	-9.986832008041722E-001
-6.6677743E-001	-9.874623766220267E-001
-6.6574770E-001	-9.753915270169546E-001
-6.6488177E-001	-9.636552638922957E-001
-6.6371167E-001	-9.519390227893982E-001
-6.6269702E-001	-9.401227048149803E-001
-6.6187400E-001	-9.284518859883226E-001
-6.6079509E-001	-9.168176874518394E-001
-6.5977144E-001	-9.049061892761099E-001
-6.5878940E-001	-8.928634936686120E-001
-6.5761262E-001	-8.815218497205688E-001
-6.5686488E-001	-8.698327919399276E-001
-6.5594780E-001	-8.580205528000144E-001
-6.5474117E-001	-8.465439259178105E-001
-6.5371001E-001	-8.346891636373819E-001
-6.5284246E-001	-8.231271079963793E-001
-6.5180880E-001	-8.116496572339962E-001
-6.5093064E-001	-7.998862540473972E-001
-6.4985907E-001	-7.879690968052113E-001
-6.4887828E-001	-7.764922087253243E-001
-6.4788288E-001	-7.647230956802140E-001
-6.4675289E-001	-7.533776767689854E-001
-6.4580655E-001	-7.417321806704555E-001
-6.4498073E-001	-7.300598704753059E-001
-6.4384359E-001	-7.181760216890680E-001
-6.4285004E-001	-7.070754996880382E-001
-6.4179915E-001	-6.948002768907546E-001
-6.4091492E-001	-6.835442356489363E-001
-6.3968825E-001	-6.719797785497379E-001
-6.3896936E-001	-6.600796071671544E-001
-6.3764912E-001	-6.486539806894687E-001
-6.3690102E-001	-6.371771798780168E-001
-6.3588995E-001	-6.262229650660780E-001
-6.3498044E-001	-6.147156926906772E-001
-6.3370538E-001	-6.028437126234421E-001
-6.3282067E-001	-5.918448501163023E-001
-6.3162744E-001	-5.800542656194274E-001
-6.3084972E-001	-5.682115069077680E-001
-6.2987143E-001	-5.566296456036763E-001
-6.2891287E-001	-5.449164455273623E-001
-6.2788588E-001	-5.339947216060530E-001
-6.2674803E-001	-5.220519943783679E-001
-6.2588447E-001	-5.109534980303261E-001
-6.2482661E-001	-4.995930428720170E-001
-6.2375069E-001	-4.879089490407047E-001
-6.2271088E-001	-4.765438830212387E-001
-6.2191159E-001	-4.648817561014935E-001
-6.2085766E-001	-4.533486497346981E-001
-6.1957300E-001	-4.413219038946430E-001
-6.1872411E-001	-4.286828771647464E-001
-6.1731601E-001	-4.173263796363722E-001
-6.1673295E-001	-4.061411849212555E-001
-6.1522150E-001	-3.944992249210664E-001
-6.1460400E-001	-3.831109422074486E-001
-6.1371118E-001	-3.718357524248184E-001
-6.1278057E-001	-3.603243512894820E-001
-6.1164111E-001	-3.490151802218509E-001
-6.1019957E-001	-3.376318284965776E-001
-6.0976213E-001	-3.264092733324682E-001
-6.0839611E-001	-3.150127916613217E-001
-6.0776818E-001	-3.038344977561518E-001
-6.0633057E-001	-2.924438095479092E-001
-6.0556757E-001	-2.808938923718638E-001
-6.0448235E-001	-2.700178411754743E-001
-6.0339010E-001	-2.586518228949875E-001
-6.0257989E-001	-2.471860289504684E-001
-6.0180932E-001	-2.356515585755306E-001
-6.0103613E-001	-2.244727891723114E-001
-5.9946805E-001	-2.132506580954354E-001
-5.9863883E-001	-2.021784413329986E-001
-5.9748340E-001	-1.908249023962729E-001
-5.9634823E-001	-1.800871780487124E-001
-5.9560502E-001	-1.685792396396955E-001
-5.9443158E-001	-1.572525225517696E-001
-5.9366530E-001	-1.463089632732726E-001
-5.9237093E-001	-1.354389521810748E-001
-5.9145731E-001	-1.240246861876138E-001
-5.9046811E-001	-1.125422972254460E-001
-5.8945221E-001	-1.016501137372594E-001
-5.8846331E-001	-9.062788752770001E-002
-5.8770776E-001	-7.922391539991441E-002
-5.8675373E-001	-6.819929406765612E-002
-5.8549947E-001	-5.727957274454321E-002
-5.8440739E-001	-4.631121410488101E-002
-5.8320469E-001	-3.377847733744667E-002
-5.8230948E-001	-2.090054423832852E-002
-5.8153820E-001	-9.871118963800218E-003
-5.8015126E-001	1.096933629469271E-003
-5.7932866E-001	1.241444301127492E-002
-5.7849491E-001	2.344634447913907E-002
-5.7720381E-001	3.484338778071094E-002
-5.7622504E-001	4.571245207572014E-002
-5.7525396E-001	5.676255236579530E-002
-5.7423508E-001	6.784041867487955E-002
-5.7337636E-001	7.897345757077412E-002
-5.7219225E-001	9.006487943956443E-002
-5.7111102E-001	1.009294556505566E-001
-5.7026303E-001	1.131905485609577E-001
-5.6909782E-001	1.254797892438041E-001
-5.6808633E-001	1.364467263532183E-001
-5.6720829E-001	1.472930455898587E-001
-5.6604457E-001	1.581422713481724E-001
-5.6481856E-001	1.692797075439654E-001
-5.6410730E-001	1.804611200865605E-001
-5.6302506E-001	1.911812098351893E-001
-5.6208426E-001	2.013173523462477E-001
-5.6095845E-001	2.123414513529562E-001
-5.6014067E-001	2.226795292355954E-001
-5.5891693E-001	2.336724001842345E-001
-5.5759066E-001	2.444033846604068E-001
-5.5676126E-001	2.553128627715289E-001
-5.5593735E-001	2.660556408663515E-001
-5.5488521E-001	2.765941881333231E-001
-5.5410272E-001	2.869577609278533E-001
-5.5283141E-001	2.980050167005648E-001
-5.5164778E-001	3.089203473732427E-001
-5.5111408E-001	3.194903816199970E-001
-5.4958028E-001	3.299552398201984E-001
-5.4876089E-001	3.408794488619877E-001
-5.4819643E-001	3.516577015182474E-001
-5.4711735E-001	3.622504064075418E-001
-5.4617143E-001	3.725833058081283E-001
-5.4534322E-001	3.835463930070002E-001
-5.4390210E-001	3.944592042308699E-001
-5.4286498E-001	4.051352942155457E-001
-5.4195368E-001	4.157106000006607E-001
-5.4107589E-001	4.259902149852772E-001
-5.3961164E-001	4.363059656763504E-001
-5.3899318E-001	4.469879401476096E-001
-5.3799695E-001	4.573807612199463E-001
-5.3725237E-001	4.682464334699850E-001
-5.3599238E-001	4.786979525371484E-001
-5.3506917E-001	4.891826277943681E-001
-5.3398901E-001	4.994648888644404E-001
-5.3272897E-001	5.098199169668876E-001
-5.3203958E-001	5.204034571156475E-001
-5.3079510E-001	5.307086806387593E-001
-5.3015435E-001	5.411500141576457E-001
-5.2879000E-001	5.512980295138226E-001
-5.2785468E-001	5.619596205811690E-001
-5.2697885E-001	5.730714743474024E-001
-5.2564013E-001	5.832890686751480E-001
-5.2499855E-001	5.935032218406118E-001
-5.2382940E-001	6.037738443248815E-001
-5.2290338E-001	6.139422552315192E-001
-5.2170384E-001	6.241686540819291E-001
-5.2128255E-001	6.342418636712761E-001
-5.1994717E-001	6.448575809463524E-001
-5.1906198E-001	6.549323317767310E-001
-5.1778388E-001	6.652834521675546E-001
-5.1667714E-001	6.753825554329311E-001
-5.1573813E-001	6.858403577848735E-001
-5.1449615E-001	6.961403083470152E-001
-5.1404279E-001	7.061618836418333E-001
-5.1298845E-001	7.168252655753378E-001
-5.1158386E-001	7.269421417818052E-001
-5.1084280E-001	7.369666871791232E-001
-5.0994730E-001	7.471331814648936E-001
-5.0877529E-001	7.572129409484298E-001
-5.0800467E-001	7.671987746786701E-001
-5.0711817E-001	7.770523522739081E-001
-5.0596523E-001	7.871585924199156E-001
-5.0508714E-001	7.971820108316585E-001
-5.0391525E-001	8.076563082911399E-001
-5.0280851E-001	8.178778129051203E-001
-5.0208801E-001	8.276583313665995E-001
-5.0059909E-001	8.375106198644175E-001
-4.9972105E-001	8.474406612212899E-001
-4.9837193E-001	8.580705308251879E-001
-4.9792007E-001	8.675374573579564E-001
-4.9696648E-001	8.773973426044162E-001
-4.9608731E-001	8.873224056981197E-001
-4.9474156E-001	8.972205725913351E-001
-4.9404791E-001	9.070386079450472E-001
-4.9258697E-001	9.169266502614342E-001
-4.9203727E-001	9.264095167133313E-001
-4.9109238E-001	9.367371489880281E-001
-4.8995256E-001	9.470702652578069E-001
-4.8933303E-001	9.571401399864001E-001
-4.8793957E-001	9.661465410005210E-001
-4.8661816E-001	9.761230582716287E-001
-4.8590043E-001	9.855684285605211E-001
-4.8456374E-001	9.952486971462164E-001
-4.8396319E-001	1.004726294842031E+000
-4.8305950E-001	1.014761467276807E+000
-4.8182830E-001	1.024548393708688E+000
-4.8116079E-001	1.033778442012470E+000
-4.8000193E-001	1.043662800557085E+000
-4.7899643E-001	1.053064815286132E+000
-4.7793594E-001	1.062899824011213E+000
-4.7694513E-001	1.072471735792027E+000
-4.7584251E-001	1.081737844618381E+000
-4.7489300E-001	1.091801278141385E+000
-4.7370130E-001	1.102713120790822E+000
-4.7280419E-001	1.113376266020165E+000
-4.7171915E-001	1.123749250063192E+000
-4.7075805E-001	1.132798773547014E+000
-4.6956658E-001	1.142283925616048E+000
-4.6869996E-001	1.151751243129922E+000
-4.6764418E-001	1.161624550819398E+000
-4.6674263E-001	1.170641556704675E+000
-4.6576348E-001	1.179705036183202E+000
-4.6462664E-001	1.189446365667717E+000
-4.6359521E-001	1.198389525854769E+000
-4.6273237E-001	1.208493385188007E+000
-4.6158329E-001	1.217212338828375E+000
-4.6067029E-001	1.227246407635403E+000
-4.5971763E-001	1.236256726500062E+000
-4.5851514E-001	1.245239024231350E+000
-4.5777562E-001	1.254611460009105E+000
-4.5674595E-001	1.263985886617950E+000
-4.5556372E-001	1.273315665383510E+000
-4.5465186E-001	1.282043450960404E+000
-4.5360434E-001	1.291634683669716E+000
-4.5273864E-001	1.300533929259373E+000
-4.5161080E-001	1.310403913121533E+000
-4.5073894E-001	1.318736050001998E+000
-4.4973654E-001	1.327949441314303E+000
-4.4885758E-001	1.336950744053834E+000
-4.4773319E-001	1.346264157832024E+000
-4.4669518E-001	1.355665813993524E+000
-4.4573227E-001	1.364628990491227E+000
-4.4475329E-001	1.373814949113301E+000
-4.4370902E-001	1.382316909316515E+000
-4.4265452E-001	1.391580894037538E+000
-4.4175375E-001	1.399973470879154E+000
-4.4088730E-001	1.409191700319449E+000
-4.3959311E-001	1.418756034087254E+000
-4.3888339E-001	1.427088527368726E+000
-4.3802422E-001	1.435659243138851E+000
-4.3682864E-001	1.445254296340320E+000
-4.3582872E-001	1.453760821159797E+000
-4.3478355E-001	1.462602313194019E+000
-4.3372351E-001	1.471179933231983E+000
-4.3284577E-001	1.479623355799241E+000
-4.3174881E-001	1.488841240742687E+000
-4.3062368E-001	1.497512342224748E+000
-4.2973959E-001	1.506470254449930E+000
-4.2873770E-001	1.515026268445784E+000
-4.2771077E-001	1.523327271711391E+000
-4.2648879E-001	1.532376036323884E+000
-4.2564955E-001	1.540891870304391E+000
-4.2463756E-001	1.549494427986389E+000
-4.2379150E-001	1.558807841191692E+000
-4.2272070E-001	1.567399098917289E+000
-4.2188469E-001	1.574960757808789E+000
-4.2062637E-001	1.584671479132442E+000
-4.1963419E-001	1.592620957868972E+000
-4.1879147E-001	1.601559289903554E+000
-4.1770414E-001	1.609987183301534E+000
-4.1675943E-001	1.618581479957424E+000
-4.1570184E-001	1.626780197024338E+000
-4.1471165E-001	1.636232664463698E+000
-4.1389444E-001	1.643838097478898E+000
-4.1284385E-001	1.652411057993227E+000
-4.1173422E-001	1.660333406594058E+000
-4.1074568E-001	1.669224073771840E+000
-4.0966728E-001	1.677134637755382E+000
-4.0872011E-001	1.685371176236206E+000
-4.0775552E-001	1.693923509159337E+000
-4.0671760E-001	1.701684478808327E+000
-4.0577447E-001	1.710642659634527E+000
-4.0461838E-001	1.718827192706097E+000
-4.0388909E-001	1.726581808593538E+000
-4.0287948E-001	1.734499859178982E+000
-4.0175384E-001	1.742479758130180E+000
-4.0063500E-001	1.751869065894025E+000
-3.9981461E-001	1.759105368627630E+000
-3.9882967E-001	1.767146039616172E+000
-3.9778769E-001	1.775740198239127E+000
-3.9683756E-001	1.784272281772200E+000
-3.9579242E-001	1.791687370174465E+000
-3.9477074E-001	1.800207566266337E+000
-3.9372501E-001	1.808200101057686E+000
-3.9274034E-001	1.815688280319725E+000
-3.9181834E-001	1.823795861983900E+000
-3.9072552E-001	1.831292630345735E+000
-3.8978812E-001	1.839373842433652E+000
-3.8892362E-001	1.847857171998527E+000
-3.8766626E-001	1.855708737340240E+000
-3.8675410E-001	1.863435657487972E+000
-3.8580173E-001	1.871503433143921E+000
-3.8476217E-001	1.880231399227076E+000
-3.8367233E-001	1.887579662656346E+000
-3.8268164E-001	1.895256799824189E+000
-3.8183421E-001	1.903616878997399E+000
-3.8060895E-001	1.910355507048564E+000
-3.7965247E-001	1.919501386306901E+000
-3.7878764E-001	1.926039506715760E+000
-3.7760350E-001	1.935059924868932E+000
-3.7673000E-001	1.942743940485848E+000
-3.7550983E-001	1.949534239316428E+000
-3.7470764E-001	1.957316737456205E+000
-3.7383598E-001	1.964376636401372E+000
-3.7255535E-001	1.972817927874907E+000
-3.7166941E-001	1.980261907640166E+000
-3.7076154E-001	1.988082609242863E+000
-3.6976558E-001	1.995395029246200E+000
-3.6877969E-001	2.003379868964370E+000
-3.6773175E-001	2.010644896990721E+000
-3.6678198E-001	2.018124353842463E+000
-3.6574265E-001	2.025745401779816E+000
-3.6464700E-001	2.033277478758937E+000
-3.6375415E-001	2.040952168170580E+000
-3.6259702E-001	2.047551108731163E+000
-3.6173892E-001	2.055493831082622E+000
-3.6071524E-001	2.063295680753839E+000
-3.5975301E-001	2.070598443901098E+000
-3.5877046E-001	2.077879925568912E+000
-3.5752404E-001	2.085712947401337E+000
-3.5682121E-001	2.092839982774537E+000
-3.5573986E-001	2.100408991614604E+000
-3.5476378E-001	2.107422873653750E+000
-3.5367429E-001	2.114730763214595E+000
-3.5270950E-001	2.121826855559863E+000
-3.5165101E-001	2.129399743345051E+000
-3.5075945E-001	2.137445763029433E+000
-3.4991130E-001	2.144674715295452E+000
-3.4872007E-001	2.151132399837181E+000
-3.4764287E-001	2.158887445650723E+000
-3.4682038E-001	2.165766426632018E+000
-3.4581327E-001	2.173582020733086E+000
-3.4479254E-001	2.179504644815567E+000
-3.4376732E-001	2.187419916048723E+000
-3.4272131E-001	2.194882157224208E+000
-3.4194738E-001	2.203008114067991E+000
-3.4076402E-001	2.209680870175362E+000
-3.3961639E-001	2.216310521518750E+000
-3.3882049E-001	2.223373961209717E+000
-3.3769262E-001	2.230504801427880E+000
-3.3677199E-001	2.237539771530368E+000
-3.3585063E-001	2.244450561520688E+000
-3.3486789E-001	2.251875230559598E+000
-3.3373600E-001	2.258666039892919E+000
-3.3286163E-001	2.265980501160170E+000
-3.3183977E-001	2.272776862261482E+000
-3.3092898E-001	2.279848273881164E+000
-3.2975265E-001	2.287141077220442E+000
-3.2862225E-001	2.292344567400450E+000
-3.2763058E-001	2.301014429887128E+000
-3.2669613E-001	2.307681575693470E+000
-3.2578549E-001	2.315013009916846E+000
-3.2465443E-001	2.322026012202571E+000
-3.2392764E-001	2.327774602781844E+000
-3.2275927E-001	2.334459477276710E+000
-3.2178223E-001	2.341449331064716E+000
-3.2077649E-001	2.346759501430732E+000
-3.1972522E-001	2.355866153483042E+000
-3.1888625E-001	2.362705005869905E+000
-3.1778041E-001	2.369820781879952E+000
-3.1675366E-001	2.376227638903448E+000
-3.1588739E-001	2.382740723590055E+000
-3.1483546E-001	2.389690926505466E+000
-3.1361538E-001	2.396384409959630E+000
-3.1284785E-001	2.402693002588215E+000
-3.1165189E-001	2.410023174903998E+000
-3.1074545E-001	2.416460777590347E+000
-3.0998260E-001	2.422802849224318E+000
-3.0869457E-001	2.429849941697398E+000
-3.0785275E-001	2.436011837369399E+000
-3.0669656E-001	2.443236379987662E+000
-3.0594671E-001	2.449632668384805E+000
-3.0483770E-001	2.456479537410242E+000
-3.0383325E-001	2.463028936198464E+000
-3.0273795E-001	2.469926286593505E+000
-3.0176950E-001	2.475948030749947E+000
-3.0085903E-001	2.482480355710898E+000
-2.9962623E-001	2.489342624059390E+000
-2.9879075E-001	2.495516039707040E+000
-2.9786253E-001	2.501798681086964E+000
-2.9687113E-001	2.508049234682959E+000
-2.9586723E-001	2.515334523938314E+000
-2.9475611E-001	2.521964845558003E+000
-2.9373986E-001	2.527700411802914E+000
-2.9274282E-001	2.534566386982245E+000
-2.9163355E-001	2.540774606142051E+000
-2.9075754E-001	2.547985611690422E+000
-2.8967991E-001	2.553693021889085E+000
-2.8868204E-001	2.560407709090434E+000
-2.8793603E-001	2.566290804633383E+000
-2.8674406E-001	2.573066513571476E+000
-2.8569371E-001	2.579328616400048E+000
-2.8469470E-001	2.584995344281197E+000
-2.8386083E-001	2.591961679359279E+000
-2.8294098E-001	2.598276787949835E+000
-2.8179619E-001	2.604814691676019E+000
-2.8090313E-001	2.611001777428168E+000
-2.7980843E-001	2.617131307870729E+000
-2.7875555E-001	2.623498212132191E+000
-2.7773058E-001	2.629807434197151E+000
-2.7678788E-001	2.635814166455363E+000
-2.7584308E-001	2.641952435451515E+000
-2.7472961E-001	2.648633763413883E+000
-2.7375424E-001	2.654770811950733E+000
-2.7280179E-001	2.661180719457287E+000
-2.7182674E-001	2.667504740859030E+000
-2.7076960E-001	2.673517971954970E+000
-2.6967353E-001	2.680155785823320E+000
-2.6881394E-001	2.685120754638682E+000
-2.6792330E-001	2.691502881822764E+000
-2.6676911E-001	2.698065719394776E+000
-2.6583934E-001	2.705059009773631E+000
-2.6481882E-001	2.710850934187581E+000
-2.6390240E-001	2.715942424353546E+000
-2.6261547E-001	2.722077917721528E+000
-2.6169202E-001	2.727977015078077E+000
-2.6078075E-001	2.734952415451030E+000
-2.5968552E-001	2.740461907453017E+000
-2.5862464E-001	2.746300040847739E+000
-2.5785416E-001	2.752172940302068E+000
-2.5677130E-001	2.759332888380253E+000
-2.5556222E-001	2.764824372198845E+000
-2.5475112E-001	2.770315171164445E+000
-2.5375000E-001	2.776438730182472E+000
-2.5284126E-001	2.782665787940310E+000
-2.5182429E-001	2.788037185867623E+000
-2.5074035E-001	2.794442221798274E+000
-2.4970958E-001	2.800542775855504E+000
-2.4884833E-001	2.806140536235418E+000
-2.4773957E-001	2.812151247152585E+000
-2.4691281E-001	2.818494549367012E+000
-2.4576890E-001	2.824341450852387E+000
-2.4486397E-001	2.830539490889629E+000
-2.4384357E-001	2.836560893350629E+000
-2.4272549E-001	2.842273178751821E+000
-2.4181376E-001	2.847992461312707E+000
-2.4076284E-001	2.854257834224716E+000
-2.3977205E-001	2.860014524724747E+000
-2.3880258E-001	2.865899800591492E+000
-2.3782918E-001	2.871172088439835E+000
-2.3681501E-001	2.876756829796022E+000
-2.3583280E-001	2.883017590901499E+000
-2.3478873E-001	2.888563350394918E+000
-2.3386814E-001	2.894816771425575E+000
-2.3277925E-001	2.900422442905843E+000
-2.3194309E-001	2.905791676430773E+000
-2.3089218E-001	2.912469985032516E+000
-2.2985625E-001	2.918322384230486E+000
-2.2887379E-001	2.923805363200330E+000
-2.2786430E-001	2.928752596179642E+000
-2.2682507E-001	2.934953101819161E+000
-2.2577927E-001	2.940646428200932E+000
-2.2485384E-001	2.947162947612085E+000
-2.2384851E-001	2.951844303144341E+000
-2.2271702E-001	2.957976026943442E+000
-2.2179647E-001	2.963613133296136E+000
-2.2082905E-001	2.969350734518628E+000
-2.1978858E-001	2.975258321121883E+000
-2.1885104E-001	2.980803314347149E+000
-2.1795876E-001	2.986266898060286E+000
-2.1677658E-001	2.990581398760810E+000
-2.1578616E-001	2.997484330983838E+000
-2.1488780E-001	3.002150824776400E+000
-2.1387428E-001	3.007785413622862E+000
-2.1284884E-001	3.013871931367449E+000
-2.1173072E-001	3.019333814029331E+000
-2.1084309E-001	3.026456861931974E+000
-2.0993823E-001	3.031500130615855E+000
-2.0891812E-001	3.036259279206945E+000
-2.0774879E-001	3.042789442540045E+000
-2.0687827E-001	3.047995756345767E+000
-2.0583929E-001	3.053408629364461E+000
-2.0459428E-001	3.059698843960989E+000
-2.0386119E-001	3.065175920448922E+000
-2.0291258E-001	3.070626723821517E+000
-2.0166963E-001	3.075458410854495E+000
-2.0083861E-001	3.081381226855299E+000
-1.9972242E-001	3.087063028567218E+000
-1.9876613E-001	3.091554203519117E+000
-1.9775641E-001	3.097714320101112E+000
-1.9688287E-001	3.102959288982376E+000
-1.9567013E-001	3.107823715717700E+000
-1.9490075E-001	3.113749048776096E+000
-1.9379038E-001	3.119323601944849E+000
-1.9294620E-001	3.123681483721285E+000
-1.9177057E-001	3.129145571479089E+000
-1.9090538E-001	3.135469646765781E+000
-1.8989919E-001	3.141100685353635E+000
-1.8886548E-001	3.146459984006711E+000
-1.8782479E-001	3.151437320307075E+000
-1.8673235E-001	3.157205121936626E+000
-1.8564346E-001	3.162913482126015E+000
-1.8480134E-001	3.167256099758330E+000
-1.8385930E-001	3.172340616031928E+000
-1.8283781E-001	3.178396920653624E+000
-1.8188757E-001	3.183433491322727E+000
-1.8081251E-001	3.188560562553207E+000
-1.7990451E-001	3.193787239124234E+000
-1.7879328E-001	3.199785350649456E+000
-1.7784739E-001	3.203787726936511E+000
-1.7674950E-001	3.208941583675298E+000
-1.7582136E-001	3.215006109740992E+000
-1.7473343E-001	3.220273853407924E+000
-1.7396863E-001	3.225801378488548E+000
-1.7281975E-001	3.230866274899910E+000
-1.7182916E-001	3.237123104770632E+000
-1.7074707E-001	3.241248769892586E+000
-1.6986799E-001	3.246889505673344E+000
-1.6885076E-001	3.251972639900934E+000
-1.6770919E-001	3.257929566281811E+000
-1.6692431E-001	3.262675875866883E+000
-1.6583674E-001	3.268741922972680E+000
-1.6478182E-001	3.272599543134362E+000
-1.6394623E-001	3.277929065956021E+000
-1.6283178E-001	3.282284007821221E+000
-1.6191767E-001	3.288897505512952E+000
-1.6100925E-001	3.293129452699580E+000
-1.5986915E-001	3.299205462689741E+000
-1.5875719E-001	3.304535922076973E+000
-1.5790667E-001	3.308956255273017E+000
-1.5673563E-001	3.314473819401531E+000
-1.5587333E-001	3.319264865583843E+000
-1.5483387E-001	3.324533585965334E+000
-1.5368225E-001	3.329648372199792E+000
-1.5295975E-001	3.335274351967712E+000
-1.5174919E-001	3.339452180518791E+000
-1.5087411E-001	3.345235667846822E+000
-1.4979587E-001	3.350283745814245E+000
-1.4869027E-001	3.354711642563800E+000
-1.4794400E-001	3.359071051081038E+000
-1.4680475E-001	3.364674711733613E+000
-1.4577584E-001	3.369535750812950E+000
-1.4489998E-001	3.375774252745828E+000
-1.4383993E-001	3.379769437787729E+000
-1.4290237E-001	3.384848437375481E+000
-1.4191259E-001	3.390242158262822E+000
-1.4104421E-001	3.394789545737297E+000
-1.3993110E-001	3.399823329514930E+000
-1.3886389E-001	3.404858922516858E+000
-1.3794915E-001	3.409781511334430E+000
-1.3674685E-001	3.415291914233464E+000
-1.3583894E-001	3.420054645093686E+000
-1.3505535E-001	3.424374334238205E+000
-1.3384137E-001	3.430352590702192E+000
-1.3283649E-001	3.434687544317775E+000
-1.3196465E-001	3.439991574596462E+000
-1.3071395E-001	3.444847149429492E+000
-1.2985998E-001	3.449281862186972E+000
-1.2878105E-001	3.455847524934351E+000
-1.2809904E-001	3.459703058556272E+000
-1.2673709E-001	3.464466733711589E+000
-1.2587704E-001	3.469207411011048E+000
-1.2488362E-001	3.474798321172052E+000
-1.2395894E-001	3.478402782403180E+000
-1.2282727E-001	3.485022178402659E+000
-1.2168318E-001	3.488768303298311E+000
-1.2083581E-001	3.493683674269249E+000
-1.1982820E-001	3.498507437882608E+000
-1.1887577E-001	3.503915791621227E+000
-1.1777736E-001	3.509583569235282E+000
-1.1681513E-001	3.512909664599985E+000
-1.1575896E-001	3.517729172551313E+000
-1.1486082E-001	3.521775599431130E+000
-1.1363133E-001	3.527306611339259E+000
-1.1285473E-001	3.531850410157652E+000
-1.1174531E-001	3.537124406960275E+000
-1.1073580E-001	3.542232392010845E+000
-1.0973412E-001	3.547162422595406E+000
-1.0880034E-001	3.551650067170462E+000
-1.0769540E-001	3.555920288190862E+000
-1.0677664E-001	3.561269979785996E+000
-1.0593979E-001	3.565548345998479E+000
-1.0479856E-001	3.570265887287157E+000
-1.0388218E-001	3.575041315069905E+000
-1.0290043E-001	3.579640019823003E+000
-1.0186438E-001	3.584841245101342E+000
-1.0092745E-001	3.588851415448726E+000
-9.9693485E-002	3.593827829868708E+000
-9.8720372E-002	3.599261633584533E+000
-9.7738318E-002	3.602816456445971E+000
-9.7051293E-002	3.608447697538494E+000
-9.5837444E-002	3.612546453321428E+000
-9.4956040E-002	3.617817484670198E+000
-9.3573280E-002	3.622432003109334E+000
-9.2822269E-002	3.626750968672605E+000
-9.1780506E-002	3.631263813486797E+000
-9.0787195E-002	3.636441667036777E+000
-8.9827664E-002	3.640493257178193E+000
-8.8828549E-002	3.644965917975814E+000
-8.7890379E-002	3.648933669683091E+000
-8.6832426E-002	3.654699410553349E+000
-8.5949548E-002	3.658818623533975E+000
-8.4911466E-002	3.663718254335592E+000
-8.3939001E-002	3.667769261532371E+000
-8.2709901E-002	3.673346295496344E+000
-8.1779338E-002	3.676412934506395E+000
-8.0913007E-002	3.681729393976710E+000
-7.9808757E-002	3.686017486939715E+000
-7.8810394E-002	3.690077435639168E+000
-7.7911615E-002	3.694896839835032E+000
-7.7009790E-002	3.699189818433837E+000
-7.5900853E-002	3.704443131332049E+000
-7.4771702E-002	3.708977304123067E+000
-7.3858999E-002	3.712733407664274E+000
-7.2988138E-002	3.717828208649607E+000
-7.1879342E-002	3.722471594258600E+000
-7.0774376E-002	3.726683754443940E+000
-6.9822997E-002	3.731290723990526E+000
-6.8808518E-002	3.735447087284363E+000
-6.8003990E-002	3.739462968927853E+000
-6.6799328E-002	3.744693742858038E+000
-6.5894984E-002	3.747856547616458E+000
-6.4862378E-002	3.753708029786750E+000
-6.3765466E-002	3.757603957697185E+000
-6.2904604E-002	3.761837223804392E+000
-6.2176429E-002	3.766682312444431E+000
-6.0866538E-002	3.770199696774831E+000
-5.9688672E-002	3.774972318572225E+000
-5.8861088E-002	3.779989324234151E+000
-5.7817742E-002	3.784358378862535E+000
-5.6690600E-002	3.788205278140524E+000
-5.5804543E-002	3.792568494876239E+000
-5.4832228E-002	3.797380804842419E+000
-5.3617507E-002	3.800324361081465E+000
-5.2907944E-002	3.806590428506901E+000
-5.1695213E-002	3.809694397850535E+000
-5.0971005E-002	3.813895616266471E+000
-4.9809821E-002	3.818450783689826E+000
-4.8823986E-002	3.823153633061942E+000
-4.7823671E-002	3.826675984594580E+000
-4.6811610E-002	3.831780798457274E+000
-4.5744609E-002	3.836189052332990E+000
-4.4865128E-002	3.839711404509005E+000
-4.3967985E-002	3.844294925427363E+000
-4.2985681E-002	3.849127511735322E+000
-4.1910198E-002	3.853104681328496E+000
-4.1090559E-002	3.858188037174472E+000
-3.9826255E-002	3.861638396426500E+000
-3.8868289E-002	3.865709979776970E+000
-3.7901402E-002	3.870211935750177E+000
-3.6932200E-002	3.874092426013071E+000
-3.5946231E-002	3.878488564932804E+000
-3.4890544E-002	3.883168890171405E+000
-3.3741806E-002	3.887394817890943E+000
-3.2709595E-002	3.890532139274825E+000
-3.1885903E-002	3.894562186850266E+000
-3.0723020E-002	3.898500124613456E+000
-2.9972525E-002	3.903695248595739E+000
-2.8789269E-002	3.907633469612506E+000
-2.8004181E-002	3.911546835744815E+000
-2.6874347E-002	3.916473267445369E+000
-2.5856605E-002	3.920770111459284E+000
-2.4837760E-002	3.924391872353027E+000
-2.3862954E-002	3.927936918412328E+000
-2.2864548E-002	3.931919541071963E+000
-2.1851003E-002	3.935780657110385E+000
-2.0881278E-002	3.941486985092567E+000
-2.0051738E-002	3.944123282476705E+000
-1.8747317E-002	3.948897254366585E+000
-1.7780917E-002	3.952806132811091E+000
-1.6931133E-002	3.956979000458027E+000
-1.5876789E-002	3.960672312054058E+000
-1.5042137E-002	3.965907736508932E+000
-1.3909377E-002	3.969236659782915E+000
-1.2882872E-002	3.974145836058707E+000
-1.2020382E-002	3.977504775480011E+000
-1.0716222E-002	3.981970522138811E+000
-9.7434148E-003	3.985855258350739E+000
-8.8174697E-003	3.988951977204394E+000
-7.7731670E-003	3.994649618864067E+000
-6.9416268E-003	3.997574294702826E+000
-5.8803530E-003	4.001892532463415E+000
-4.9108164E-003	4.005327197011736E+000
-3.8931437E-003	4.010058357759757E+000
-3.0707256E-003	4.012646616609000E+000
-2.0048523E-003	4.017788573057274E+000
-9.3014800E-004	4.021393769869091E+000
2.1979476E-004	4.026275114880665E+000
1.0210809E-003	4.028859280209716E+000
2.1291527E-003	4.034524828747458E+000
3.0474521E-003	4.037314414978022E+000
4.0696296E-003	4.040027014571848E+000
5.1055113E-003	4.044355464754268E+000
6.0880855E-003	4.048868818415542E+000
6.9105034E-003	4.051143472825217E+000
6.8723224E-003	4.052295814860955E+000