EC-Lab ASCII FILE
Nb header lines : 63                          

Linear Sweep Voltammetry

Run on channel : 6 (SN 13765)
User : 
Electrode connection : standard
Potential control : Ewe
Ewe ctrl range : min = -2.50 V, max = 2.50 V
Ewe,I filtering : <None>
Safety Limits :
	Do not start on E overload
Channel : Floating
Acquisition started on : 07/17/2026 14:54:15.062
Technique started on : 07/17/2026 14:54:16.059
Loaded Setting File :  C:\Users\EEM-620\Desktop\Wade\abao\20260629\N719_0629-0-1_C06.mpr
Saved on :
	File : N719_0717-j-2_C06.mpr
	Directory : C:\Users\EEM-620\Desktop\Wade\abao\20260717\
	Host : 192.109.209.200
Device : VSP-300 (SN 0025)
Address : 192.109.209.129
EC-LAB for windows v11.62 (software)
Internet server v27.00 (firmware)
Command interpretor v12.02 (firmware)
Electrode material : Au/Pd
Initial state : 
Electrolyte : NaCl (0.2M)
Comments : Fe(CN)63-/Fe(CN)64- 5.10-3 M
Cable : ULC
Reference electrode : SCE Saturated Calomel Electrode (0.241 V)
Electrode surface area : 0.001 cm2
Characteristic mass : 0.001 g
Equivalent Weight : 0.000 g/eq.
Density : 0.000 g/cm3
Volume (V) : 0.001 cm3
Cycle Definition : Charge/Discharge alternance
tR (h:m:s)          0:00:5.0000         
dER/dt (mV/h)       0.0                 
dER (mV)            0                   
dtR (s)             0.0500              
dE/dt               10.000              
dE/dt unit          mV/s                
Ei (V)              -0.800              
vs.                 Ref                 
EL (V)              0.010               
vs.                 Ref                 
record              <I>                 
dI                  0.000               
unit dI             uA                  
tI (s)              0.0000              
step percent        50                  
N                   10                  
E range min (V)     -2.500              
E range max (V)     2.500               
I Range             Auto                
I Range min         Unset               
I Range max         Unset               
I Range init        Unset               
Bandwidth           8                   

Ewe/V	<I>/mA	
-6.4049244E-001	0.000000000000000E+000
-6.3888878E-001	0.000000000000000E+000
-6.3993889E-001	0.000000000000000E+000
-6.4025575E-001	0.000000000000000E+000
-6.3990444E-001	0.000000000000000E+000
-6.3936990E-001	0.000000000000000E+000
-6.3984340E-001	0.000000000000000E+000
-6.3983572E-001	0.000000000000000E+000
-6.3896513E-001	0.000000000000000E+000
-6.3974029E-001	0.000000000000000E+000
-6.3957608E-001	0.000000000000000E+000
-6.4004576E-001	0.000000000000000E+000
-6.3997704E-001	0.000000000000000E+000
-6.3836187E-001	0.000000000000000E+000
-6.3945007E-001	0.000000000000000E+000
-6.4025575E-001	0.000000000000000E+000
-6.3995790E-001	0.000000000000000E+000
-6.3915604E-001	0.000000000000000E+000
-6.4021760E-001	0.000000000000000E+000
-6.4113778E-001	0.000000000000000E+000
-6.3862914E-001	0.000000000000000E+000
-6.3905680E-001	0.000000000000000E+000
-6.3921338E-001	0.000000000000000E+000
-6.3900715E-001	0.000000000000000E+000
-6.3991213E-001	0.000000000000000E+000
-6.3935465E-001	0.000000000000000E+000
-6.4003432E-001	0.000000000000000E+000
-6.3930118E-001	0.000000000000000E+000
-6.3992351E-001	0.000000000000000E+000
-6.3885063E-001	0.000000000000000E+000
-6.3927066E-001	0.000000000000000E+000
-6.3948447E-001	0.000000000000000E+000
-6.4001137E-001	0.000000000000000E+000
-6.3971740E-001	0.000000000000000E+000
-6.3966393E-001	0.000000000000000E+000
-6.4057267E-001	0.000000000000000E+000
-6.3945776E-001	0.000000000000000E+000
-6.3914841E-001	0.000000000000000E+000
-6.3957608E-001	0.000000000000000E+000
-6.3981283E-001	0.000000000000000E+000
-6.3880861E-001	0.000000000000000E+000
-6.3966775E-001	0.000000000000000E+000
-6.3954937E-001	0.000000000000000E+000
-6.3988155E-001	0.000000000000000E+000
-6.4012206E-001	0.000000000000000E+000
-6.3766313E-001	0.000000000000000E+000
-6.4028633E-001	0.000000000000000E+000
-6.3985866E-001	0.000000000000000E+000
-6.3951886E-001	0.000000000000000E+000
-6.3932413E-001	0.000000000000000E+000
-6.3917524E-001	0.000000000000000E+000
-6.3845736E-001	0.000000000000000E+000
-6.4035124E-001	0.000000000000000E+000
-6.4093542E-001	0.000000000000000E+000
-6.3950360E-001	0.000000000000000E+000
-6.3930881E-001	0.000000000000000E+000
-6.4039320E-001	0.000000000000000E+000
-6.3982815E-001	0.000000000000000E+000
-6.3874376E-001	0.000000000000000E+000
-6.3841152E-001	0.000000000000000E+000
-6.3803351E-001	0.000000000000000E+000
-6.4460862E-001	0.000000000000000E+000
-6.4466971E-001	0.000000000000000E+000
-7.8966939E-001	-1.498233694500394E+000
-7.8867382E-001	-1.490193732634737E+000
-7.8763449E-001	-1.477073981806086E+000
-7.8677809E-001	-1.464221303982235E+000
-7.8567839E-001	-1.452387163622511E+000
-7.8466022E-001	-1.441332959052589E+000
-7.8379846E-001	-1.429601732283011E+000
-7.8281426E-001	-1.418270948860383E+000
-7.8166878E-001	-1.407930232998394E+000
-7.8076380E-001	-1.396480653590961E+000
-7.7971923E-001	-1.386026492411339E+000
-7.7895427E-001	-1.375811538341015E+000
-7.7771276E-001	-1.364962483583776E+000
-7.7645338E-001	-1.354923596260718E+000
-7.7564812E-001	-1.345148358066574E+000
-7.7474105E-001	-1.335523154172632E+000
-7.7392948E-001	-1.325057304567761E+000
-7.7269137E-001	-1.314859620617869E+000
-7.7173841E-001	-1.304633613675827E+000
-7.7066505E-001	-1.295479421262390E+000
-7.6989532E-001	-1.284855571523007E+000
-7.6879251E-001	-1.274988086135298E+000
-7.6792592E-001	-1.265000901076665E+000
-7.6665390E-001	-1.254606122082028E+000
-7.6593226E-001	-1.244434353929979E+000
-7.6476413E-001	-1.234461672864052E+000
-7.6391339E-001	-1.224922858316585E+000
-7.6303607E-001	-1.215643487870690E+000
-7.6186639E-001	-1.205272102382605E+000
-7.6068383E-001	-1.195275997260095E+000
-7.6005214E-001	-1.185359942278375E+000
-7.5868833E-001	-1.175311723393033E+000
-7.5785953E-001	-1.165650207549334E+000
-7.5673991E-001	-1.154998416012078E+000
-7.5580007E-001	-1.145304813051236E+000
-7.5484669E-001	-1.135800394333074E+000
-7.5375426E-001	-1.125718861140859E+000
-7.5282931E-001	-1.116346101104108E+000
-7.5179040E-001	-1.106434610568815E+000
-7.5086659E-001	-1.096696101054981E+000
-7.4959213E-001	-1.086440438059741E+000
-7.4883336E-001	-1.076721907765779E+000
-7.4773043E-001	-1.066368100313187E+000
-7.4660403E-001	-1.056828504635227E+000
-7.4584121E-001	-1.047268743178356E+000
-7.4483269E-001	-1.037477840534264E+000
-7.4372929E-001	-1.026771779551550E+000
-7.4284697E-001	-1.017187618160232E+000
-7.4168450E-001	-1.007728248696637E+000
-7.4071789E-001	-9.971616614471923E-001
-7.3986942E-001	-9.871890946511108E-001
-7.3863101E-001	-9.770674589607413E-001
-7.3797536E-001	-9.675715957526805E-001
-7.3697662E-001	-9.577687913264246E-001
-7.3573017E-001	-9.487482647377004E-001
-7.3465109E-001	-9.383580985444553E-001
-7.3382646E-001	-9.284254508485859E-001
-7.3267287E-001	-9.184392618912232E-001
-7.3187673E-001	-9.090618015163496E-001
-7.3093843E-001	-8.988615611305910E-001
-7.2966588E-001	-8.894712098494750E-001
-7.2872448E-001	-8.794377108146101E-001
-7.2782731E-001	-8.694948162193619E-001
-7.2692496E-001	-8.595571871157048E-001
-7.2595161E-001	-8.500194673576944E-001
-7.2472060E-001	-8.402939631983095E-001
-7.2357810E-001	-8.302056151959598E-001
-7.2265756E-001	-8.212587598229444E-001
-7.2181529E-001	-8.113022108596759E-001
-7.2075886E-001	-8.015960696394728E-001
-7.1990609E-001	-7.913297737086218E-001
-7.1905690E-001	-7.816983839427998E-001
-7.1787965E-001	-7.720853602858622E-001
-7.1670604E-001	-7.619932700254530E-001
-7.1574610E-001	-7.527134597163521E-001
-7.1493179E-001	-7.426931565311037E-001
-7.1360105E-001	-7.327065208443919E-001
-7.1286267E-001	-7.232160304017636E-001
-7.1189803E-001	-7.137209295337650E-001
-7.1085358E-001	-7.034593425967088E-001
-7.0978385E-001	-6.934625617469905E-001
-7.0881087E-001	-6.839398733262937E-001
-7.0788091E-001	-6.741682849134549E-001
-7.0694965E-001	-6.642014493268951E-001
-7.0585030E-001	-6.546035847551721E-001
-7.0479077E-001	-6.448024407167141E-001
-7.0369649E-001	-6.350593376665561E-001
-7.0284486E-001	-6.253131508689229E-001
-7.0179361E-001	-6.159133514458404E-001
-7.0078564E-001	-6.057891800425099E-001
-6.9959259E-001	-5.963013833733641E-001
-6.9860667E-001	-5.866879842899444E-001
-6.9801223E-001	-5.768070859977446E-001
-6.9695354E-001	-5.671598213138394E-001
-6.9585174E-001	-5.570073205701735E-001
-6.9468707E-001	-5.481448631403829E-001
-6.9362795E-001	-5.377821331774741E-001
-6.9275808E-001	-5.282309449243332E-001
-6.9195682E-001	-5.184866727026867E-001
-6.9080269E-001	-5.093554052075859E-001
-6.8986923E-001	-4.994157899779199E-001
-6.8877470E-001	-4.891786361458124E-001
-6.8784070E-001	-4.798283080949819E-001
-6.8690801E-001	-4.702564410176655E-001
-6.8579960E-001	-4.604429739216940E-001
-6.8486035E-001	-4.505909168747815E-001
-6.8373287E-001	-4.406021375253539E-001
-6.8270576E-001	-4.297821458291122E-001
-6.8148977E-001	-4.198606913298296E-001
-6.8053484E-001	-4.103476674192459E-001
-6.7992282E-001	-4.002202007643607E-001
-6.7840838E-001	-3.908903325861990E-001
-6.7772162E-001	-3.812866921502103E-001
-6.7656469E-001	-3.713745632795291E-001
-6.7588162E-001	-3.618044398395206E-001
-6.7451769E-001	-3.521873410101297E-001
-6.7329639E-001	-3.425382056308006E-001
-6.7266738E-001	-3.327259198280270E-001
-6.7137307E-001	-3.229689649478709E-001
-6.7056167E-001	-3.133061302618860E-001
-6.6936004E-001	-3.045575703852705E-001
-6.6857892E-001	-2.949460114317908E-001
-6.6781104E-001	-2.851671844233004E-001
-6.6640079E-001	-2.757811535632706E-001
-6.6548574E-001	-2.660069806777217E-001
-6.6473264E-001	-2.565840790863801E-001
-6.6335851E-001	-2.466887443636860E-001
-6.6215843E-001	-2.371845750345130E-001
-6.6121030E-001	-2.274111716273568E-001
-6.6063410E-001	-2.176595700007895E-001
-6.5957814E-001	-2.081812229697357E-001
-6.5844542E-001	-1.984214250552725E-001
-6.5787798E-001	-1.890047995925492E-001
-6.5653050E-001	-1.794847468328138E-001
-6.5509945E-001	-1.697905387312484E-001
-6.5459293E-001	-1.600151760331183E-001
-6.5374047E-001	-1.505144285635729E-001
-6.5288317E-001	-1.411064409098968E-001
-6.5171313E-001	-1.313248414339290E-001
-6.5086728E-001	-1.212757784900875E-001
-6.4953351E-001	-1.116991972171328E-001
-6.4893681E-001	-1.023415270157984E-001
-6.4786577E-001	-9.291945640341659E-002
-6.4646780E-001	-8.327402744476697E-002
-6.4580625E-001	-7.383685553860338E-002
-6.4431548E-001	-6.398736522920023E-002
-6.4372182E-001	-5.471004321481332E-002
-6.4271021E-001	-4.495009242551329E-002
-6.4148134E-001	-3.388297864625084E-002
-6.4049202E-001	-2.285313285473317E-002
-6.3927245E-001	-1.297752007488909E-002
-6.3851643E-001	-3.594940139018274E-003
-6.3732857E-001	6.122353137201310E-003
-6.3684130E-001	1.586825547239409E-002
-6.3573861E-001	2.510049975589274E-002
-6.3422418E-001	3.487965511910390E-002
-6.3335454E-001	4.460664331930264E-002
-6.3234180E-001	5.414046675691181E-002
-6.3130099E-001	6.368905263482288E-002
-6.3055152E-001	7.335168755337329E-002
-6.2900025E-001	8.278227621620490E-002
-6.2773830E-001	9.268451844173420E-002
-6.2695664E-001	1.021335163429655E-001
-6.2631696E-001	1.128715852103805E-001
-6.2506884E-001	1.235539233679440E-001
-6.2412602E-001	1.334763466449523E-001
-6.2328708E-001	1.436138790103398E-001
-6.2203896E-001	1.528078069117060E-001
-6.2093019E-001	1.619410667809892E-001
-6.2019175E-001	1.712879828710943E-001
-6.1911315E-001	1.809487472357296E-001
-6.1751544E-001	1.903842658459862E-001
-6.1660916E-001	1.993636806553474E-001
-6.1595690E-001	2.098251127948362E-001
-6.1448133E-001	2.184963597122724E-001
-6.1367947E-001	2.280017171013418E-001
-6.1299133E-001	2.378950659530590E-001
-6.1193544E-001	2.475318062567600E-001
-6.1109203E-001	2.571691178241311E-001
-6.1002064E-001	2.666226361222841E-001
-6.0959023E-001	2.758200373361097E-001
-6.0776496E-001	2.856186913602328E-001
-6.0690188E-001	2.945124455555166E-001
-6.0626197E-001	3.042166902272472E-001
-6.0479438E-001	3.134617482967395E-001
-6.0381663E-001	3.231228307510425E-001
-6.0295588E-001	3.325799442962984E-001
-6.0162175E-001	3.418320817527949E-001
-6.0147411E-001	3.515740198393642E-001
-6.0011214E-001	3.610053466681249E-001
-5.9880024E-001	3.703283712750785E-001
-5.9808922E-001	3.802164702759709E-001
-5.9674835E-001	3.893124076227341E-001
-5.9619409E-001	3.988475837503316E-001
-5.9526950E-001	4.081791767956995E-001
-5.9402269E-001	4.173268363293681E-001
-5.9305882E-001	4.271688234336977E-001
-5.9179229E-001	4.363542676546981E-001
-5.9101987E-001	4.458036722132450E-001
-5.8976901E-001	4.552004167603094E-001
-5.8865839E-001	4.645645435348662E-001
-5.8773696E-001	4.737639591373783E-001
-5.8724040E-001	4.833541930549696E-001
-5.8571160E-001	4.922981370606365E-001
-5.8485347E-001	5.023062107049761E-001
-5.8420336E-001	5.115620687939213E-001
-5.8284873E-001	5.208304563744188E-001
-5.8165759E-001	5.302936015305733E-001
-5.8103061E-001	5.394178734238730E-001
-5.7987165E-001	5.487707651875589E-001
-5.7934946E-001	5.580693326752488E-001
-5.7817930E-001	5.675009985858628E-001
-5.7697916E-001	5.769277682044978E-001
-5.7568735E-001	5.861377126226794E-001
-5.7522511E-001	5.955763593692920E-001
-5.7358217E-001	6.047793802701769E-001
-5.7291692E-001	6.143047293542141E-001
-5.7171863E-001	6.234432593401946E-001
-5.7106382E-001	6.327186813922965E-001
-5.7009989E-001	6.421702899369937E-001
-5.6934679E-001	6.513830439222071E-001
-5.6753182E-001	6.601114272381428E-001
-5.6711060E-001	6.696266496208865E-001
-5.6611162E-001	6.791955219512735E-001
-5.6480312E-001	6.890019068701383E-001
-5.6414360E-001	6.981137586649133E-001
-5.6261092E-001	7.072606955965384E-001
-5.6204623E-001	7.164522062435168E-001
-5.6106591E-001	7.260932095905837E-001
-5.6027961E-001	7.349514618377953E-001
-5.5910075E-001	7.446051833964864E-001
-5.5781472E-001	7.533139042142372E-001
-5.5731112E-001	7.627834174782038E-001
-5.5591559E-001	7.723168404631888E-001
-5.5511326E-001	7.815725315638149E-001
-5.5402124E-001	7.906856949406702E-001
-5.5266666E-001	7.998610997223743E-001
-5.5191457E-001	8.086769172438864E-001
-5.5110431E-001	8.182860392111344E-001
-5.5011243E-001	8.273724156093749E-001
-5.4906064E-001	8.364883257007136E-001
-5.4785830E-001	8.456377135934652E-001
-5.4746544E-001	8.555842442033068E-001
-5.4557961E-001	8.645260390584135E-001
-5.4467958E-001	8.735612945465920E-001
-5.4380286E-001	8.824330560035183E-001
-5.4318702E-001	8.914596047942212E-001
-5.4206663E-001	9.012795582959354E-001
-5.4059613E-001	9.101645129698284E-001
-5.3993529E-001	9.192639081566414E-001
-5.3885531E-001	9.285343733810461E-001
-5.3811765E-001	9.376161695906383E-001
-5.3721523E-001	9.464759561750604E-001
-5.3562081E-001	9.559601450449104E-001
-5.3500491E-001	9.652253193435847E-001
-5.3371269E-001	9.738597054594678E-001
-5.3279299E-001	9.838018282144176E-001
-5.3187829E-001	9.926882031615101E-001
-5.3102887E-001	1.001678427738145E+000
-5.3038937E-001	1.010920847179708E+000
-5.2896070E-001	1.020128730822492E+000
-5.2768737E-001	1.029138887701443E+000
-5.2685869E-001	1.037977589639254E+000
-5.2594447E-001	1.047818294967763E+000
-5.2453095E-001	1.057056551160505E+000
-5.2373707E-001	1.065502669938187E+000
-5.2270788E-001	1.074404352930962E+000
-5.2170575E-001	1.083723776960287E+000
-5.2081317E-001	1.092414601119581E+000
-5.1970619E-001	1.102990771139675E+000
-5.1871008E-001	1.113883638685497E+000
-5.1758981E-001	1.122682686619188E+000
-5.1675797E-001	1.131364243612667E+000
-5.1569110E-001	1.139966646968215E+000
-5.1469618E-001	1.150302910556398E+000
-5.1354754E-001	1.158997914648426E+000
-5.1288778E-001	1.167935486882931E+000
-5.1176256E-001	1.177086475324053E+000
-5.1070946E-001	1.186079145995559E+000
-5.0962150E-001	1.195602984478077E+000
-5.0870055E-001	1.204068653699624E+000
-5.0772101E-001	1.213386919763353E+000
-5.0668925E-001	1.222629676124569E+000
-5.0592488E-001	1.230747214709825E+000
-5.0455844E-001	1.239859132027190E+000
-5.0379562E-001	1.249085088156992E+000
-5.0267977E-001	1.258258927175446E+000
-5.0164968E-001	1.267647761989524E+000
-5.0049132E-001	1.276214156851729E+000
-4.9983287E-001	1.285206799351891E+000
-4.9876308E-001	1.294548269085306E+000
-4.9763659E-001	1.303846811724254E+000
-4.9663994E-001	1.313079085614945E+000
-4.9573493E-001	1.322475109663277E+000
-4.9469638E-001	1.330657472902826E+000
-4.9392551E-001	1.339011683646177E+000
-4.9280801E-001	1.348518336398733E+000
-4.9147001E-001	1.356414932653120E+000
-4.9062848E-001	1.365935117558198E+000
-4.8974049E-001	1.374077186264375E+000
-4.8854086E-001	1.384051533842003E+000
-4.8788857E-001	1.392522541599138E+000
-4.8653468E-001	1.401328886599423E+000
-4.8573148E-001	1.411901469445887E+000
-4.8481229E-001	1.419058372715007E+000
-4.8375764E-001	1.427909576064081E+000
-4.8253879E-001	1.436559631178774E+000
-4.8168769E-001	1.446199362200719E+000
-4.8058748E-001	1.454108749504012E+000
-4.7966358E-001	1.463420549338615E+000
-4.7851342E-001	1.471189330435454E+000
-4.7767094E-001	1.480803959515094E+000
-4.7668147E-001	1.489181491649807E+000
-4.7583848E-001	1.498841689692604E+000
-4.7482818E-001	1.507567922027761E+000
-4.7350210E-001	1.515319109514909E+000
-4.7277528E-001	1.525285102936845E+000
-4.7190395E-001	1.532642394580222E+000
-4.7076356E-001	1.542949583519388E+000
-4.6937332E-001	1.551035401320179E+000
-4.6855932E-001	1.559361476589135E+000
-4.6781304E-001	1.569131787728377E+000
-4.6661457E-001	1.577053782553185E+000
-4.6587527E-001	1.585348536570862E+000
-4.6472281E-001	1.595335439123495E+000
-4.6390101E-001	1.604179238989103E+000
-4.6250415E-001	1.611294327786666E+000
-4.6149802E-001	1.622436584973777E+000
-4.6078822E-001	1.628722024328653E+000
-4.5989519E-001	1.638279202083754E+000
-4.5893633E-001	1.645792628469891E+000
-4.5774993E-001	1.657126999563641E+000
-4.5674890E-001	1.663766141015075E+000
-4.5567587E-001	1.671636567653890E+000
-4.5464563E-001	1.681128104527787E+000
-4.5345140E-001	1.689804234438462E+000
-4.5301378E-001	1.697631099354263E+000
-4.5160463E-001	1.707104033894005E+000
-4.5089254E-001	1.713760564724609E+000
-4.4978440E-001	1.724171102442334E+000
-4.4873413E-001	1.731185312900275E+000
-4.4776258E-001	1.740729062278959E+000
-4.4677678E-001	1.748903586632675E+000
-4.4578749E-001	1.756990129473024E+000
-4.4479567E-001	1.766114595570800E+000
-4.4375843E-001	1.772393518024021E+000
-4.4267511E-001	1.782592596279247E+000
-4.4175860E-001	1.789885689739613E+000
-4.4093668E-001	1.798351807450814E+000
-4.3951952E-001	1.807047931408437E+000
-4.3864599E-001	1.815808481452788E+000
-4.3768331E-001	1.824840145254583E+000
-4.3662375E-001	1.832860292935813E+000
-4.3570113E-001	1.841090019688068E+000
-4.3465143E-001	1.850401067347455E+000
-4.3378124E-001	1.858821574843251E+000
-4.3274099E-001	1.866746678948410E+000
-4.3157959E-001	1.876377930519756E+000
-4.3075210E-001	1.883867948877004E+000
-4.2980808E-001	1.891964253176134E+000
-4.2863759E-001	1.900740542621527E+000
-4.2783713E-001	1.909242206335691E+000
-4.2683280E-001	1.918506909023840E+000
-4.2571449E-001	1.926397292150384E+000
-4.2478848E-001	1.934841390245465E+000
-4.2379552E-001	1.943369408724489E+000
-4.2262080E-001	1.951148136622379E+000
-4.2151222E-001	1.959843226928932E+000
-4.2074752E-001	1.968072436749933E+000
-4.1959873E-001	1.975807799325598E+000
-4.1870388E-001	1.984674869036233E+000
-4.1762859E-001	1.992532339360974E+000
-4.1689327E-001	2.001054925466796E+000
-4.1569337E-001	2.009502192890210E+000
-4.1461769E-001	2.017916689316437E+000
-4.1376850E-001	2.027257646441974E+000
-4.1261879E-001	2.035294129892634E+000
-4.1170385E-001	2.042990649188003E+000
-4.1083261E-001	2.050258925567050E+000
-4.0981615E-001	2.058458624338666E+000
-4.0887535E-001	2.067039934297405E+000
-4.0755424E-001	2.075411964213885E+000
-4.0662321E-001	2.084222997780198E+000
-4.0577298E-001	2.092191184315642E+000
-4.0484348E-001	2.099618926920277E+000
-4.0374228E-001	2.107742254656767E+000
-4.0270185E-001	2.116263616045036E+000
-4.0158305E-001	2.124001950025555E+000
-4.0073517E-001	2.132485616262308E+000
-3.9956579E-001	2.140981171320432E+000
-3.9877155E-001	2.148576995288877E+000
-3.9779299E-001	2.156714279894480E+000
-3.9664450E-001	2.165232146407902E+000
-3.9585286E-001	2.172661761718775E+000
-3.9460760E-001	2.180913235864860E+000
-3.9376849E-001	2.189401823337427E+000
-3.9293104E-001	2.196190347274153E+000
-3.9147231E-001	2.204103492739312E+000
-3.9068034E-001	2.212559983410220E+000
-3.8960910E-001	2.220427686417544E+000
-3.8877794E-001	2.228385415450667E+000
-3.8768744E-001	2.236125439405443E+000
-3.8656870E-001	2.243938627894277E+000
-3.8565198E-001	2.251938137346556E+000
-3.8488713E-001	2.260005942097418E+000
-3.8387397E-001	2.267303651129765E+000
-3.8285941E-001	2.275853137883107E+000
-3.8159704E-001	2.284406494487214E+000
-3.8086623E-001	2.291780912066358E+000
-3.7965989E-001	2.300180660629710E+000
-3.7875646E-001	2.308021502914254E+000
-3.7755656E-001	2.316083686356718E+000
-3.7672469E-001	2.323299449351090E+000
-3.7564626E-001	2.331392498479953E+000
-3.7481135E-001	2.339227192353724E+000
-3.7375703E-001	2.346293672643325E+000
-3.7272736E-001	2.354735878330702E+000
-3.7179017E-001	2.362440389253930E+000
-3.7079188E-001	2.369482682810890E+000
-3.6981961E-001	2.377057289599403E+000
-3.6856034E-001	2.384726303043195E+000
-3.6794686E-001	2.392401013385367E+000
-3.6679238E-001	2.401270318917668E+000
-3.6566100E-001	2.408038301876303E+000
-3.6495629E-001	2.416104481727984E+000
-3.6376259E-001	2.423158134899676E+000
-3.6291412E-001	2.431173260013260E+000
-3.6178309E-001	2.439251832664013E+000
-3.6078659E-001	2.446110803251905E+000
-3.5984021E-001	2.453819754774925E+000
-3.5881034E-001	2.461502488564570E+000
-3.5779017E-001	2.468136087498149E+000
-3.5675168E-001	2.475919563185293E+000
-3.5587588E-001	2.483152570394072E+000
-3.5472962E-001	2.490803413369036E+000
-3.5388219E-001	2.498881112922120E+000
-3.5283372E-001	2.505502779109271E+000
-3.5175160E-001	2.513476055805320E+000
-3.5074434E-001	2.521048328666774E+000
-3.4974808E-001	2.527596443953568E+000
-3.4865198E-001	2.535193444954028E+000
-3.4770480E-001	2.542801170989321E+000
-3.4674999E-001	2.550682478414167E+000
-3.4573287E-001	2.557479702212191E+000
-3.4476048E-001	2.564136185027941E+000
-3.4378362E-001	2.573032650634676E+000
-3.4287003E-001	2.580105061332377E+000
-3.4204805E-001	2.587143826873692E+000
-3.4033760E-001	2.594845692868574E+000
-3.3950439E-001	2.602173727695593E+000
-3.3885136E-001	2.609597612239099E+000
-3.3766776E-001	2.616353982576623E+000
-3.3687443E-001	2.624218248658716E+000
-3.3584884E-001	2.631570534056443E+000
-3.3474362E-001	2.638077758804513E+000
-3.3381554E-001	2.644329843973683E+000
-3.3265525E-001	2.651824908034936E+000
-3.3168325E-001	2.659822912679783E+000
-3.3075994E-001	2.666731809616280E+000
-3.2992342E-001	2.673485824355375E+000
-3.2883924E-001	2.681111732566791E+000
-3.2758048E-001	2.688029828476111E+000
-3.2651728E-001	2.694744780107776E+000
-3.2581732E-001	2.701451346278198E+000
-3.2469821E-001	2.709768111948151E+000
-3.2374141E-001	2.717472149266143E+000
-3.2277390E-001	2.724329433507389E+000
-3.2188585E-001	2.731043614972585E+000
-3.2075149E-001	2.738368784111962E+000
-3.1968895E-001	2.744744742082222E+000
-3.1856531E-001	2.752573080668476E+000
-3.1769133E-001	2.759137187291067E+000
-3.1685737E-001	2.765769051212050E+000
-3.1583139E-001	2.772561542689807E+000
-3.1470966E-001	2.779704672318921E+000
-3.1364238E-001	2.785820687571530E+000
-3.1273115E-001	2.792520135917037E+000
-3.1194478E-001	2.799309358276702E+000
-3.1084368E-001	2.807418149513072E+000
-3.0988440E-001	2.813819995356909E+000
-3.0875632E-001	2.821323470936868E+000
-3.0780169E-001	2.827478667523533E+000
-3.0677101E-001	2.835060217590247E+000
-3.0583638E-001	2.842065452425580E+000
-3.0482987E-001	2.848724682345974E+000
-3.0392367E-001	2.855917414581331E+000
-3.0295712E-001	2.862210140918350E+000
-3.0182230E-001	2.869856478439431E+000
-3.0071309E-001	2.875964568996871E+000
-2.9974228E-001	2.882900199011576E+000
-2.9864123E-001	2.889744027897162E+000
-2.9756764E-001	2.896355526590796E+000
-2.9666722E-001	2.903145639475767E+000
-2.9569289E-001	2.909022002584408E+000
-2.9490101E-001	2.915355782266019E+000
-2.9364932E-001	2.921624306994232E+000
-2.9278377E-001	2.928213382760690E+000
-2.9178321E-001	2.935574472811954E+000
-2.9100254E-001	2.941620167482789E+000
-2.8980887E-001	2.948524551259148E+000
-2.8885981E-001	2.954558761934877E+000
-2.8780365E-001	2.962378187587959E+000
-2.8684759E-001	2.968289294452568E+000
-2.8594595E-001	2.974226122025641E+000
-2.8457528E-001	2.981274226473417E+000
-2.8371722E-001	2.987155537914347E+000
-2.8286290E-001	2.994336106117601E+000
-2.8194275E-001	3.001143268413013E+000
-2.8087685E-001	3.007426594970390E+000
-2.7971032E-001	3.014997862911173E+000
-2.7873603E-001	3.021609584766416E+000
-2.7782008E-001	3.027448075018839E+000
-2.7678174E-001	3.033334939568132E+000
-2.7584264E-001	3.038580975322802E+000
-2.7473259E-001	3.045232932719429E+000
-2.7375317E-001	3.051133298763510E+000
-2.7254066E-001	3.057096514436932E+000
-2.7171880E-001	3.064510338435758E+000
-2.7079126E-001	3.070373173941064E+000
-2.6967782E-001	3.076706387102604E+000
-2.6868820E-001	3.083312801453271E+000
-2.6750579E-001	3.088707166413474E+000
-2.6665178E-001	3.095691542658543E+000
-2.6571736E-001	3.101886154528884E+000
-2.6459396E-001	3.107862837060736E+000
-2.6388526E-001	3.114642775400526E+000
-2.6254186E-001	3.119367281043978E+000
-2.6189080E-001	3.126434467456967E+000
-2.6087302E-001	3.131219896962175E+000
-2.5994748E-001	3.138075644771270E+000
-2.5882787E-001	3.144720468256210E+000
-2.5780609E-001	3.149718698605362E+000
-2.5678849E-001	3.156056638669088E+000
-2.5588652E-001	3.162555856285280E+000
-2.5448602E-001	3.168522227729980E+000
-2.5385711E-001	3.173901543573098E+000
-2.5274035E-001	3.179840167713635E+000
-2.5161535E-001	3.186442242176440E+000
-2.5067645E-001	3.191805475287971E+000
-2.4964698E-001	3.198058774078724E+000
-2.4881336E-001	3.205209999724680E+000
-2.4768017E-001	3.210307024143354E+000
-2.4684253E-001	3.215853927377877E+000
-2.4580391E-001	3.222455567231890E+000
-2.4498594E-001	3.228279608267329E+000
-2.4376774E-001	3.233014600381940E+000
-2.4283773E-001	3.239305644123633E+000
-2.4194930E-001	3.245064849102931E+000
-2.4089772E-001	3.251731900388915E+000
-2.3970523E-001	3.256665448899629E+000
-2.3878399E-001	3.262607683855904E+000
-2.3781753E-001	3.268847216058657E+000
-2.3661412E-001	3.274664760187832E+000
-2.3591432E-001	3.279126057102545E+000
-2.3467994E-001	3.286010826627418E+000
-2.3373894E-001	3.291507027215427E+000
-2.3289931E-001	3.297837130481753E+000
-2.3178038E-001	3.303106423881331E+000
-2.3063682E-001	3.309755663628934E+000
-2.2969846E-001	3.314210930087359E+000
-2.2874822E-001	3.320645036520776E+000
-2.2763495E-001	3.325609682886697E+000
-2.2660531E-001	3.330605080066285E+000
-2.2560491E-001	3.336551518351953E+000
-2.2477557E-001	3.342561921934564E+000
-2.2376852E-001	3.348574312748752E+000
-2.2289434E-001	3.353159026967184E+000
-2.2159152E-001	3.359060176622336E+000
-2.2072724E-001	3.364261028391326E+000
-2.1979666E-001	3.370558384391998E+000
-2.1874793E-001	3.376086069230389E+000
-2.1787988E-001	3.380223188135375E+000
-2.1675411E-001	3.385768753510959E+000
-2.1582519E-001	3.391775992558500E+000
-2.1488525E-001	3.396879813185450E+000
-2.1384746E-001	3.403598117032260E+000
-2.1272391E-001	3.408191894491516E+000
-2.1163738E-001	3.414117287706439E+000
-2.1070573E-001	3.418071409966899E+000
-2.0990558E-001	3.423623985162475E+000
-2.0874035E-001	3.428985908075617E+000
-2.0772147E-001	3.434559852795811E+000
-2.0683670E-001	3.440271595010048E+000
-2.0584609E-001	3.445461642962911E+000
-2.0480263E-001	3.451404377618498E+000
-2.0378590E-001	3.456926945183028E+000
-2.0284237E-001	3.462377338497724E+000
-2.0200412E-001	3.467662244986116E+000
-2.0082018E-001	3.472793433953214E+000
-1.9979842E-001	3.476956783166351E+000
-1.9874196E-001	3.484306313925329E+000
-1.9759329E-001	3.487878865665856E+000
-1.9671929E-001	3.492714647693680E+000
-1.9609311E-001	3.496884449764558E+000
-1.9501060E-001	3.502853079526517E+000
-1.9385819E-001	3.509241535201014E+000
-1.9281594E-001	3.513900066967370E+000
-1.9197275E-001	3.519241883246991E+000
-1.9067027E-001	3.525328636346911E+000
-1.8995394E-001	3.529093829569987E+000
-1.8873270E-001	3.534145926987684E+000
-1.8780337E-001	3.540504836925749E+000
-1.8676649E-001	3.544589360003144E+000
-1.8599208E-001	3.551815601255456E+000
-1.8488663E-001	3.556832386387725E+000
-1.8382259E-001	3.561135777720695E+000
-1.8307664E-001	3.565392137279417E+000
-1.8192384E-001	3.570494668903178E+000
-1.8074588E-001	3.576763990300670E+000
-1.7987545E-001	3.579813773582952E+000
-1.7888533E-001	3.586115902220776E+000
-1.7778821E-001	3.591726565250640E+000
-1.7677797E-001	3.597257479719410E+000
-1.7595054E-001	3.601472639927165E+000
-1.7465773E-001	3.607640866466625E+000
-1.7377624E-001	3.613002560756833E+000
-1.7277159E-001	3.617817971993389E+000
-1.7183319E-001	3.621092438262053E+000
-1.7063083E-001	3.626548879124485E+000
-1.7000227E-001	3.632043041564792E+000
-1.6875871E-001	3.636828563188502E+000
-1.6775246E-001	3.642276232441279E+000
-1.6676627E-001	3.646612871024339E+000
-1.6575712E-001	3.651624382387762E+000
-1.6460022E-001	3.656691898350360E+000
-1.6375215E-001	3.661070595736875E+000
-1.6284674E-001	3.665957895720304E+000
-1.6171148E-001	3.670832716204501E+000
-1.6084003E-001	3.675969016236067E+000
-1.5990609E-001	3.680609587717939E+000
-1.5888935E-001	3.686561803574913E+000
-1.5761994E-001	3.691406387102141E+000
-1.5687498E-001	3.695327891795728E+000
-1.5570107E-001	3.699966874939431E+000
-1.5473437E-001	3.705934123723715E+000
-1.5373422E-001	3.711353832924807E+000
-1.5280065E-001	3.714558162622993E+000
-1.5170170E-001	3.720233815115705E+000
-1.5070377E-001	3.724954409731748E+000
-1.4962150E-001	3.728921052482391E+000
-1.4879507E-001	3.734089032559382E+000
-1.4803097E-001	3.737976510767574E+000
-1.4697865E-001	3.744028887729648E+000
-1.4589442E-001	3.745252701419382E+000
-1.4480792E-001	3.751876403336166E+000
-1.4388031E-001	3.756957678696487E+000
-1.4300440E-001	3.762274318271224E+000
-1.4165145E-001	3.767230239731294E+000
-1.4080530E-001	3.771677207204245E+000
-1.3981634E-001	3.777394952045537E+000
-1.3875443E-001	3.781150426577625E+000
-1.3796145E-001	3.785748389322507E+000
-1.3683467E-001	3.790415066259882E+000
-1.3568346E-001	3.795327456147312E+000
-1.3489945E-001	3.799302055879874E+000
-1.3385196E-001	3.804354593157775E+000
-1.3274854E-001	3.809171570335877E+000
-1.3182804E-001	3.814606331012868E+000
-1.3075468E-001	3.818624026245535E+000
-1.2999746E-001	3.822206818543485E+000
-1.2881267E-001	3.828146246296402E+000
-1.2773293E-001	3.831492659118453E+000
-1.2677602E-001	3.836799080232325E+000
-1.2553550E-001	3.841967441969445E+000
-1.2487174E-001	3.845916040517666E+000
-1.2383388E-001	3.850154008215299E+000
-1.2279885E-001	3.854708339329122E+000
-1.2210382E-001	3.859240306354532E+000
-1.2093615E-001	3.863759533674639E+000
-1.1990818E-001	3.868608560275156E+000
-1.1906087E-001	3.873797516874603E+000
-1.1799075E-001	3.878349828499339E+000
-1.1696851E-001	3.883431296105741E+000
-1.1571893E-001	3.887450939347912E+000
-1.1478615E-001	3.891713334454426E+000
-1.1399173E-001	3.897532148493660E+000
-1.1270537E-001	3.900769668266218E+000
-1.1181214E-001	3.905223704046684E+000
-1.1069972E-001	3.909479613657345E+000
-1.0985587E-001	3.913469086810593E+000
-1.0876936E-001	3.917773330101269E+000
-1.0779262E-001	3.922655459393980E+000
-1.0676201E-001	3.927141282293526E+000
-1.0589503E-001	3.932606968614799E+000
-1.0471012E-001	3.936140771763942E+000
-1.0375192E-001	3.941687228503035E+000
-1.0267368E-001	3.945149997870118E+000
-1.0161435E-001	3.950032793305041E+000
-1.0101802E-001	3.953646452890510E+000
-9.9905193E-002	3.958098419286579E+000
-9.8893397E-002	3.962860492002278E+000
-9.7851381E-002	3.967367744556199E+000
-9.6761495E-002	3.972283503018133E+000
-9.5814101E-002	3.977191045328439E+000
-9.5004834E-002	3.983710160409956E+000
-9.3876563E-002	3.986095000820153E+000
-9.2692226E-002	3.990496318097485E+000
-9.1764390E-002	3.994240720514892E+000
-9.0702757E-002	3.997959998945106E+000
-8.9981236E-002	4.002398972158094E+000
-8.8960916E-002	4.006698227039095E+000
-8.7913871E-002	4.010953008796701E+000
-8.7057069E-002	4.014697206241109E+000
-8.5792147E-002	4.018824133056189E+000
-8.4721886E-002	4.024627786314532E+000
-8.3873443E-002	4.027910590171821E+000
-8.2708888E-002	4.032912585438325E+000
-8.1646755E-002	4.037100387392229E+000
-8.0928907E-002	4.041795299009046E+000
-7.9994060E-002	4.046237397948445E+000
-7.8735307E-002	4.050268717937996E+000
-7.7839710E-002	4.053240837322363E+000
-7.6846197E-002	4.058188871072019E+000
-7.5806245E-002	4.062931691606849E+000
-7.4935682E-002	4.066803920600149E+000
-7.3995560E-002	4.071423387469565E+000
-7.2753318E-002	4.075164364995796E+000
-7.1778372E-002	4.079527066261704E+000
-7.0811503E-002	4.084692561804012E+000
-6.9903813E-002	4.088322556129199E+000
-6.8855718E-002	4.092587605718549E+000
-6.7944385E-002	4.098137960389820E+000
-6.6608407E-002	4.103629904212767E+000
-6.5893993E-002	4.105938774732650E+000
-6.4726628E-002	4.108832394083358E+000
-6.3881509E-002	4.114126803698383E+000
-6.3016467E-002	4.118339224329546E+000
-6.1801385E-002	4.122606258701406E+000
-6.0750294E-002	4.126890287355153E+000
-5.9719980E-002	4.130748273778502E+000
-5.8727030E-002	4.134973012186862E+000
-5.7746083E-002	4.137720645962148E+000
-5.6812145E-002	4.142529556044842E+000
-5.5869032E-002	4.147236367066693E+000
-5.4858580E-002	4.151993722477730E+000
-5.3758573E-002	4.155391357563161E+000
-5.2901786E-002	4.159707010896120E+000
-5.1999994E-002	4.163857116379958E+000
-5.0891034E-002	4.168201049720786E+000
-4.9906973E-002	4.171433007275617E+000
-4.8911966E-002	4.176219900230748E+000
-4.7738187E-002	4.180988926578451E+000
-4.6848733E-002	4.184020050697888E+000
-4.5829672E-002	4.189350675149626E+000
-4.4964194E-002	4.193019024199927E+000
-4.3936186E-002	4.197498673345066E+000
-4.2954288E-002	4.201861224240730E+000
-4.1875403E-002	4.206285323257788E+000
-4.0983640E-002	4.210091656127858E+000
-3.9866135E-002	4.213560745671941E+000
-3.9105237E-002	4.218485483968720E+000
-3.7688129E-002	4.222522778242990E+000
-3.6935385E-002	4.225935428230848E+000
-3.6003932E-002	4.230194042126353E+000
-3.4898702E-002	4.234166032392160E+000
-3.3808626E-002	4.238784277880633E+000
-3.2996181E-002	4.242351156693942E+000
-3.1767748E-002	4.246163801870480E+000
-3.0931331E-002	4.249850655043574E+000
-2.9909426E-002	4.253312239192923E+000
-2.8776964E-002	4.257468129749654E+000
-2.7753022E-002	4.262533664703383E+000
-2.6841177E-002	4.265757079016673E+000
-2.5959911E-002	4.269645840481473E+000
-2.4802333E-002	4.274172292815316E+000
-2.3971891E-002	4.277554521004735E+000
-2.2982281E-002	4.281223737531242E+000
-2.1894276E-002	4.285126112677418E+000
-2.0943057E-002	4.289774473778326E+000
-1.9942706E-002	4.292413852281044E+000
-1.8738821E-002	4.295363577437399E+000
-1.7856644E-002	4.298594639257132E+000
-1.7007923E-002	4.300955276798325E+000
-1.5894910E-002	4.302782979117090E+000
-1.5032168E-002	4.306841225535763E+000
-1.3823675E-002	4.312654360025007E+000
-1.2886233E-002	4.315807374820199E+000
-1.1992805E-002	4.320562217522550E+000
-1.0948289E-002	4.325500897787229E+000
-9.8679010E-003	4.329210752323998E+000
-9.1008712E-003	4.333824770870024E+000
-7.9057468E-003	4.337903151909529E+000
-6.9963569E-003	4.342241173877035E+000
-6.1183609E-003	4.346203751034214E+000
-4.6567130E-003	4.349736537867628E+000
-3.7007441E-003	4.354954205177446E+000
-2.7953847E-003	4.358587622642524E+000
-1.7140968E-003	4.361438914967550E+000
-9.0554118E-004	4.365734235556047E+000
2.8661487E-004	4.368962272449780E+000
1.0940961E-003	4.373631311867982E+000
1.8883882E-003	4.377222698595787E+000
3.2224569E-003	4.380277270520175E+000
4.0900260E-003	4.384847122802508E+000
5.0518429E-003	4.387866951249274E+000
5.9459596E-003	4.393579856665028E+000
6.3912156E-003	4.396487248980469E+000
6.6012233E-003	4.396970185366541E+000