EC-Lab ASCII FILE
Nb header lines : 63                          

Linear Sweep Voltammetry

Run on channel : 6 (SN 13765)
User : 
Electrode connection : standard
Potential control : Ewe
Ewe ctrl range : min = -2.50 V, max = 2.50 V
Ewe,I filtering : <None>
Safety Limits :
	Do not start on E overload
Channel : Floating
Acquisition started on : 07/17/2026 15:01:00.466
Technique started on : 07/17/2026 15:01:01.463
Loaded Setting File :  C:\Users\EEM-620\Desktop\Wade\abao\20260629\N719_0629-0-1_C06.mpr
Saved on :
	File : N719_0717-a-2_C06.mpr
	Directory : C:\Users\EEM-620\Desktop\Wade\abao\20260717\
	Host : 192.109.209.200
Device : VSP-300 (SN 0025)
Address : 192.109.209.129
EC-LAB for windows v11.62 (software)
Internet server v27.00 (firmware)
Command interpretor v12.02 (firmware)
Electrode material : Au/Pd
Initial state : 
Electrolyte : NaCl (0.2M)
Comments : Fe(CN)63-/Fe(CN)64- 5.10-3 M
Cable : ULC
Reference electrode : SCE Saturated Calomel Electrode (0.241 V)
Electrode surface area : 0.001 cm2
Characteristic mass : 0.001 g
Equivalent Weight : 0.000 g/eq.
Density : 0.000 g/cm3
Volume (V) : 0.001 cm3
Cycle Definition : Charge/Discharge alternance
tR (h:m:s)          0:00:5.0000         
dER/dt (mV/h)       0.0                 
dER (mV)            0                   
dtR (s)             0.0500              
dE/dt               10.000              
dE/dt unit          mV/s                
Ei (V)              -0.800              
vs.                 Ref                 
EL (V)              0.010               
vs.                 Ref                 
record              <I>                 
dI                  0.000               
unit dI             uA                  
tI (s)              0.0000              
step percent        50                  
N                   10                  
E range min (V)     -2.500              
E range max (V)     2.500               
I Range             Auto                
I Range min         Unset               
I Range max         Unset               
I Range init        Unset               
Bandwidth           8                   

Ewe/V	<I>/mA	
-8.2992566E-001	0.000000000000000E+000
-8.2781792E-001	0.000000000000000E+000
-8.2899016E-001	0.000000000000000E+000
-8.2800502E-001	0.000000000000000E+000
-8.2785612E-001	0.000000000000000E+000
-8.2734072E-001	0.000000000000000E+000
-8.2713830E-001	0.000000000000000E+000
-8.2707721E-001	0.000000000000000E+000
-8.2651591E-001	0.000000000000000E+000
-8.3068550E-001	0.000000000000000E+000
-8.2902068E-001	0.000000000000000E+000
-8.2800508E-001	0.000000000000000E+000
-8.2789052E-001	0.000000000000000E+000
-8.2774162E-001	0.000000000000000E+000
-8.2879162E-001	0.000000000000000E+000
-8.2656169E-001	0.000000000000000E+000
-8.2747811E-001	0.000000000000000E+000
-8.2766902E-001	0.000000000000000E+000
-8.2809287E-001	0.000000000000000E+000
-8.2879162E-001	0.000000000000000E+000
-8.2558042E-001	0.000000000000000E+000
-8.2939875E-001	0.000000000000000E+000
-8.2727575E-001	0.000000000000000E+000
-8.2687104E-001	0.000000000000000E+000
-8.3041823E-001	0.000000000000000E+000
-8.2990658E-001	0.000000000000000E+000
-8.2584387E-001	0.000000000000000E+000
-8.3030367E-001	0.000000000000000E+000
-8.2545060E-001	0.000000000000000E+000
-8.2919633E-001	0.000000000000000E+000
-8.2850140E-001	0.000000000000000E+000
-8.2745522E-001	0.000000000000000E+000
-8.2995617E-001	0.000000000000000E+000
-8.2836401E-001	0.000000000000000E+000
-8.2917345E-001	0.000000000000000E+000
-8.2864273E-001	0.000000000000000E+000
-8.2684433E-001	0.000000000000000E+000
-8.2616079E-001	0.000000000000000E+000
-8.2783705E-001	0.000000000000000E+000
-8.2868469E-001	0.000000000000000E+000
-8.2663810E-001	0.000000000000000E+000
-8.2760799E-001	0.000000000000000E+000
-8.2930708E-001	0.000000000000000E+000
-8.2993329E-001	0.000000000000000E+000
-8.2902074E-001	0.000000000000000E+000
-8.2788283E-001	0.000000000000000E+000
-8.2885653E-001	0.000000000000000E+000
-8.3007836E-001	0.000000000000000E+000
-8.2465637E-001	0.000000000000000E+000
-8.2809669E-001	0.000000000000000E+000
-8.2830667E-001	0.000000000000000E+000
-8.2793248E-001	0.000000000000000E+000
-8.2995236E-001	0.000000000000000E+000
-8.2994092E-001	0.000000000000000E+000
-8.2761943E-001	0.000000000000000E+000
-8.2833344E-001	0.000000000000000E+000
-8.2787138E-001	0.000000000000000E+000
-8.2924217E-001	0.000000000000000E+000
-8.2813483E-001	0.000000000000000E+000
-8.2791722E-001	0.000000000000000E+000
-8.2697791E-001	0.000000000000000E+000
-8.3275503E-001	0.000000000000000E+000
-8.3230823E-001	0.000000000000000E+000
-7.8955865E-001	7.386846953760018E-002
-7.8976732E-001	7.363141106860338E-002
-7.8823149E-001	7.416251868319990E-002
-7.8735077E-001	7.526262803003186E-002
-7.8655118E-001	7.644601817874197E-002
-7.8560436E-001	7.768066395591555E-002
-7.8431576E-001	7.900711137483427E-002
-7.8351313E-001	8.029899577161814E-002
-7.8262758E-001	8.166922507290197E-002
-7.8135008E-001	8.303249603782362E-002
-7.8017378E-001	8.440575051052435E-002
-7.7918136E-001	8.578993474926677E-002
-7.7798170E-001	8.723014914259486E-002
-7.7751523E-001	8.869769984718245E-002
-7.7623147E-001	9.007022486723706E-002
-7.7538860E-001	9.154422768344150E-002
-7.7480769E-001	9.291421973008474E-002
-7.7376711E-001	9.429392735620934E-002
-7.7251780E-001	9.570852231613713E-002
-7.7168047E-001	9.700415907772608E-002
-7.7042508E-001	9.842551821042433E-002
-7.6928055E-001	9.978448163235121E-002
-7.6877707E-001	1.011693372080726E-001
-7.6804942E-001	1.026149956360791E-001
-7.6640445E-001	1.039840017824814E-001
-7.6463574E-001	1.053115891775600E-001
-7.6440638E-001	1.067004524743447E-001
-7.6293802E-001	1.081393696885145E-001
-7.6193237E-001	1.097335825850850E-001
-7.6155561E-001	1.111692356773547E-001
-7.6003724E-001	1.124668269142232E-001
-7.5938213E-001	1.139555290818265E-001
-7.5825411E-001	1.152624458385012E-001
-7.5684410E-001	1.165962777686889E-001
-7.5518477E-001	1.178840331875478E-001
-7.5463980E-001	1.193177727637469E-001
-7.5429088E-001	1.207025599734926E-001
-7.5270820E-001	1.220306406096827E-001
-7.5204128E-001	1.232600393877543E-001
-7.5080895E-001	1.245588258846784E-001
-7.5038165E-001	1.258678917462630E-001
-7.4927324E-001	1.273515668732148E-001
-7.4780363E-001	1.287670547443169E-001
-7.4706906E-001	1.299745697114205E-001
-7.4672824E-001	1.313237105151288E-001
-7.4480164E-001	1.325817992204605E-001
-7.4403435E-001	1.339133481012169E-001
-7.4260032E-001	1.352558991078423E-001
-7.4205917E-001	1.366320750770038E-001
-7.4110425E-001	1.378734119201978E-001
-7.4006444E-001	1.390994652691810E-001
-7.3912704E-001	1.405332496925147E-001
-7.3806101E-001	1.418631701661208E-001
-7.3747784E-001	1.430976798528909E-001
-7.3604113E-001	1.444471946710513E-001
-7.3559529E-001	1.457757673881670E-001
-7.3386407E-001	1.470584299071209E-001
-7.3344564E-001	1.482524858373737E-001
-7.3182529E-001	1.495422746089323E-001
-7.3100537E-001	1.507898688597173E-001
-7.2970307E-001	1.521433582529425E-001
-7.2862113E-001	1.534257653445279E-001
-7.2780567E-001	1.547907916551523E-001
-7.2722936E-001	1.561657053383968E-001
-7.2583884E-001	1.575984768224532E-001
-7.2553700E-001	1.588770118624501E-001
-7.2438908E-001	1.599918290524299E-001
-7.2267210E-001	1.614229658538366E-001
-7.2206050E-001	1.625617096648995E-001
-7.2041011E-001	1.639678507215445E-001
-7.1969336E-001	1.651915114784561E-001
-7.1945882E-001	1.666208310397685E-001
-7.1896070E-001	1.679413877082641E-001
-7.1733934E-001	1.693409075908511E-001
-7.1554506E-001	1.706662787193498E-001
-7.1548754E-001	1.719206157312900E-001
-7.1418548E-001	1.731761286615900E-001
-7.1285605E-001	1.744340422770216E-001
-7.1233547E-001	1.757483564714688E-001
-7.1069455E-001	1.769948179523155E-001
-7.1025985E-001	1.782016531840247E-001
-7.0927316E-001	1.794711558012931E-001
-7.0885366E-001	1.807176267590238E-001
-7.0750350E-001	1.820870726024388E-001
-7.0566255E-001	1.832533687852029E-001
-7.0495266E-001	1.845872445825352E-001
-7.0424229E-001	1.859467523689897E-001
-7.0300454E-001	1.871847956373740E-001
-7.0223403E-001	1.883797495005030E-001
-7.0116997E-001	1.898229171487458E-001
-7.0024717E-001	1.910563372990379E-001
-6.9934863E-001	1.923615709809510E-001
-6.9811654E-001	1.935712775133558E-001
-6.9707018E-001	1.949928646079360E-001
-6.9604325E-001	1.962279260365498E-001
-6.9472122E-001	1.975765470685911E-001
-6.9395685E-001	1.987687002315566E-001
-6.9277585E-001	2.001996994432482E-001
-6.9233596E-001	2.014093845112614E-001
-6.9122547E-001	2.026415663529875E-001
-6.9025022E-001	2.039347497263444E-001
-6.8875140E-001	2.049313457963213E-001
-6.8800581E-001	2.062677853499295E-001
-6.8747306E-001	2.075028009059778E-001
-6.8660063E-001	2.087514047614407E-001
-6.8492264E-001	2.098603145460833E-001
-6.8361229E-001	2.111600347853853E-001
-6.8331861E-001	2.126892405665579E-001
-6.8188417E-001	2.138688143825640E-001
-6.8111479E-001	2.152114256778224E-001
-6.7917746E-001	2.164494223478768E-001
-6.7924345E-001	2.177107000585505E-001
-6.7816019E-001	2.189199079607826E-001
-6.7711115E-001	2.200069517863019E-001
-6.7621255E-001	2.213555162220646E-001
-6.7495167E-001	2.225631102799603E-001
-6.7419863E-001	2.237869647710967E-001
-6.7364168E-001	2.250180900271741E-001
-6.7220736E-001	2.262867328331426E-001
-6.7127466E-001	2.274854265291379E-001
-6.7037362E-001	2.290022865423333E-001
-6.6904539E-001	2.297843110023281E-001
-6.6784239E-001	2.313842742738343E-001
-6.6716331E-001	2.325972530486791E-001
-6.6591352E-001	2.338762776581218E-001
-6.6497272E-001	2.352447412839083E-001
-6.6446429E-001	2.364482189090680E-001
-6.6291451E-001	2.375669618723572E-001
-6.6191882E-001	2.386144630403981E-001
-6.6127813E-001	2.398271041272908E-001
-6.6045290E-001	2.410344685324364E-001
-6.5969992E-001	2.421722038426295E-001
-6.5778857E-001	2.434828723608348E-001
-6.5728462E-001	2.446000532557564E-001
-6.5658712E-001	2.457711593100376E-001
-6.5561348E-001	2.468278610526955E-001
-6.5445888E-001	2.481928237334436E-001
-6.5325958E-001	2.493063425035902E-001
-6.5236646E-001	2.505441656405187E-001
-6.5092266E-001	2.517653312534085E-001
-6.4963204E-001	2.528237341579853E-001
-6.4926243E-001	2.537643531751304E-001
-6.4772320E-001	2.550879986956711E-001
-6.4731866E-001	2.561124769427874E-001
-6.4601624E-001	2.573454104777830E-001
-6.4512026E-001	2.585164819508305E-001
-6.4382708E-001	2.598378927343417E-001
-6.4310902E-001	2.608644333495584E-001
-6.4189368E-001	2.620321614759460E-001
-6.4072382E-001	2.631320453904298E-001
-6.4045781E-001	2.643320196549639E-001
-6.3888144E-001	2.655556598809712E-001
-6.3764417E-001	2.665602878012034E-001
-6.3648641E-001	2.676598416572367E-001
-6.3638020E-001	2.687158821646860E-001
-6.3556784E-001	2.697133467429231E-001
-6.3344115E-001	2.709488599371437E-001
-6.3276547E-001	2.720618529107285E-001
-6.3234651E-001	2.731877056950776E-001
-6.3144153E-001	2.742448972507980E-001
-6.2978590E-001	2.751378349407947E-001
-6.2897640E-001	2.760640146486741E-001
-6.2822181E-001	2.772310675114609E-001
-6.2733799E-001	2.784439910341189E-001
-6.2623662E-001	2.794596007162777E-001
-6.2509209E-001	2.805974569824228E-001
-6.2417704E-001	2.817501740668116E-001
-6.2302482E-001	2.827673611679566E-001
-6.2246269E-001	2.836835080451813E-001
-6.2071621E-001	2.847434199518624E-001
-6.2032330E-001	2.856035269357358E-001
-6.1938816E-001	2.866327452852780E-001
-6.1769766E-001	2.874535288040829E-001
-6.1728501E-001	2.886600711928446E-001
-6.1592978E-001	2.898677653391610E-001
-6.1468583E-001	2.906723418790422E-001
-6.1382484E-001	2.916900294775697E-001
-6.1289996E-001	2.925907154050140E-001
-6.1217874E-001	2.935205322034928E-001
-6.1104035E-001	2.944607103626387E-001
-6.1072761E-001	2.953617795267025E-001
-6.0946059E-001	2.964544505480804E-001
-6.0777652E-001	2.975391173321347E-001
-6.0726666E-001	2.983796325408761E-001
-6.0584795E-001	2.995310725577433E-001
-6.0498929E-001	3.003376459495899E-001
-6.0363823E-001	3.012201710155722E-001
-6.0314691E-001	3.021683752248068E-001
-6.0219288E-001	3.030400497631884E-001
-6.0111356E-001	3.039251533164473E-001
-6.0010582E-001	3.048521320608435E-001
-5.9892857E-001	3.056950842685731E-001
-5.9815645E-001	3.067000822198621E-001
-5.9737819E-001	3.075241243364459E-001
-5.9571886E-001	3.084229605824307E-001
-5.9474212E-001	3.094013709589856E-001
-5.9388232E-001	3.103665066882964E-001
-5.9304971E-001	3.110629254952082E-001
-5.9223115E-001	3.118910414957439E-001
-5.9126550E-001	3.126575600148902E-001
-5.9023565E-001	3.135346142851094E-001
-5.8910418E-001	3.144681802283600E-001
-5.8846480E-001	3.153690122136918E-001
-5.8706796E-001	3.161613138185606E-001
-5.8640903E-001	3.169493951086899E-001
-5.8499354E-001	3.176663148182413E-001
-5.8422416E-001	3.186199569177850E-001
-5.8319765E-001	3.194040712074124E-001
-5.8213043E-001	3.202289037958345E-001
-5.8117974E-001	3.209341445008929E-001
-5.7998312E-001	3.216864462183027E-001
-5.7891524E-001	3.225873066112404E-001
-5.7793802E-001	3.232817313419845E-001
-5.7724983E-001	3.241067847788888E-001
-5.7652241E-001	3.249395832212443E-001
-5.7511199E-001	3.257179929248997E-001
-5.7435089E-001	3.264940074058603E-001
-5.7298779E-001	3.271296831123802E-001
-5.7190979E-001	3.278625868517580E-001
-5.7185584E-001	3.286409357355702E-001
-5.7006824E-001	3.292846884217733E-001
-5.6935275E-001	3.300049694392984E-001
-5.6812745E-001	3.308665175680765E-001
-5.6751108E-001	3.315436281589084E-001
-5.6546295E-001	3.322014263313680E-001
-5.6551009E-001	3.328122583528366E-001
-5.6441468E-001	3.335517993680397E-001
-5.6308371E-001	3.342358169180384E-001
-5.6246352E-001	3.348776925424195E-001
-5.6128436E-001	3.357425900836006E-001
-5.5999279E-001	3.363692199259449E-001
-5.5875766E-001	3.370010829703125E-001
-5.5815452E-001	3.375559392371676E-001
-5.5747491E-001	3.381412897121003E-001
-5.5651581E-001	3.389219268482488E-001
-5.5522484E-001	3.396686962633222E-001
-5.5440581E-001	3.403385543022988E-001
-5.5324042E-001	3.409124900886044E-001
-5.5301189E-001	3.416031840498794E-001
-5.5161762E-001	3.422740126304606E-001
-5.5007517E-001	3.427920267122362E-001
-5.4920357E-001	3.435027011911623E-001
-5.4802680E-001	3.441260470146382E-001
-5.4635060E-001	3.447844731478620E-001
-5.4634905E-001	3.454192572583746E-001
-5.4505229E-001	3.462007097830941E-001
-5.4435265E-001	3.466026191997095E-001
-5.4341066E-001	3.474005817401196E-001
-5.4240161E-001	3.478629013132006E-001
-5.4124415E-001	3.485266073710367E-001
-5.4111731E-001	3.491284181191414E-001
-5.3908485E-001	3.496837878798722E-001
-5.3813457E-001	3.503255416397710E-001
-5.3716159E-001	3.508252510111093E-001
-5.3634971E-001	3.513192943081513E-001
-5.3547579E-001	3.519927837230561E-001
-5.3441560E-001	3.524395149132165E-001
-5.3298700E-001	3.530750987031439E-001
-5.3166825E-001	3.535137732547740E-001
-5.3150332E-001	3.540255583827907E-001
-5.3050274E-001	3.546677544299104E-001
-5.2966988E-001	3.550248384406722E-001
-5.2829885E-001	3.557469047894450E-001
-5.2734369E-001	3.561843710227146E-001
-5.2592713E-001	3.566646164766061E-001
-5.2540702E-001	3.572476388625834E-001
-5.2406108E-001	3.577318219468002E-001
-5.2401263E-001	3.583613410247168E-001
-5.2221197E-001	3.588733019422148E-001
-5.2138609E-001	3.593396443045807E-001
-5.2041769E-001	3.598396087548252E-001
-5.1925224E-001	3.603133022121909E-001
-5.1790059E-001	3.607941669308472E-001
-5.1724005E-001	3.612132230962040E-001
-5.1612765E-001	3.616079574933746E-001
-5.1535100E-001	3.622829114190411E-001
-5.1411796E-001	3.626265283817101E-001
-5.1306158E-001	3.630666796945863E-001
-5.1200390E-001	3.636677262752701E-001
-5.1113373E-001	3.641798970773262E-001
-5.1004255E-001	3.646296915701703E-001
-5.0896859E-001	3.652194912579869E-001
-5.0836527E-001	3.655321598931968E-001
-5.0718206E-001	3.661160643246983E-001
-5.0597364E-001	3.664879040447300E-001
-5.0500441E-001	3.671166733321201E-001
-5.0422013E-001	3.675779292566919E-001
-5.0318247E-001	3.680148794995781E-001
-5.0236672E-001	3.685809582195887E-001
-5.0141603E-001	3.689093769148553E-001
-4.9956012E-001	3.693520834936468E-001
-4.9964023E-001	3.698905510138015E-001
-4.9814922E-001	3.701085182320740E-001
-4.9701950E-001	3.706498036741186E-001
-4.9616089E-001	3.711697360914616E-001
-4.9509054E-001	3.715814027797293E-001
-4.9415895E-001	3.719185844078421E-001
-4.9303183E-001	3.723595881903625E-001
-4.9247685E-001	3.728218938259404E-001
-4.9086222E-001	3.731773360459894E-001
-4.9062759E-001	3.736189698662482E-001
-4.8917809E-001	3.740708322850548E-001
-4.8839790E-001	3.744105321044717E-001
-4.8712322E-001	3.748060258933226E-001
-4.8619157E-001	3.752373040613080E-001
-4.8507133E-001	3.756224198473822E-001
-4.8449138E-001	3.760965336459092E-001
-4.8301673E-001	3.764115984478176E-001
-4.8191041E-001	3.768094166492424E-001
-4.8188049E-001	3.771515326505472E-001
-4.8021591E-001	3.776839911193863E-001
-4.7907555E-001	3.780217375606298E-001
-4.7795427E-001	3.783539440396275E-001
-4.7672668E-001	3.788726896185568E-001
-4.7613099E-001	3.789901702699296E-001
-4.7503623E-001	3.795850470762883E-001
-4.7394887E-001	3.799635304000102E-001
-4.7301885E-001	3.803026381949041E-001
-4.7242963E-001	3.806921067340703E-001
-4.7159535E-001	3.811137872851562E-001
-4.7020143E-001	3.815325613099105E-001
-4.6917626E-001	3.819682677009340E-001
-4.6816626E-001	3.822066747686923E-001
-4.6691915E-001	3.827429005738203E-001
-4.6606088E-001	3.830002945999258E-001
-4.6581018E-001	3.832647851840778E-001
-4.6482536E-001	3.837306739514776E-001
-4.6312207E-001	3.839827915308645E-001
-4.6269801E-001	3.845624486329395E-001
-4.6108189E-001	3.849687683000589E-001
-4.6056893E-001	3.852588410178814E-001
-4.5905751E-001	3.855799590409896E-001
-4.5798320E-001	3.860101704175946E-001
-4.5692199E-001	3.863437039846609E-001
-4.5659003E-001	3.866184046491989E-001
-4.5571294E-001	3.870019974966636E-001
-4.5455194E-001	3.873225589869218E-001
-4.5290285E-001	3.876591741023629E-001
-4.5208994E-001	3.880652946385510E-001
-4.5153245E-001	3.885439479447630E-001
-4.4976041E-001	3.888467675013167E-001
-4.4944727E-001	3.892535314101870E-001
-4.4780248E-001	3.894648301173689E-001
-4.4733006E-001	3.899538153033664E-001
-4.4607744E-001	3.901893111221764E-001
-4.4519669E-001	3.904577369836177E-001
-4.4413644E-001	3.909154995388606E-001
-4.4259432E-001	3.912061917837013E-001
-4.4210660E-001	3.913908465592950E-001
-4.4081563E-001	3.918085719448277E-001
-4.4037691E-001	3.921369326611379E-001
-4.3910658E-001	3.923185295182616E-001
-4.3800998E-001	3.927752130009536E-001
-4.3697166E-001	3.929997324529628E-001
-4.3662924E-001	3.934783794012633E-001
-4.3514332E-001	3.937406860016015E-001
-4.3430266E-001	3.940900190974821E-001
-4.3317300E-001	3.943498190171950E-001
-4.3201864E-001	3.946157848393472E-001
-4.3128976E-001	3.950762350664103E-001
-4.3018094E-001	3.952070281948092E-001
-4.2906970E-001	3.956465829439759E-001
-4.2805126E-001	3.958898213005151E-001
-4.2680037E-001	3.962684783532655E-001
-4.2612854E-001	3.966841848774072E-001
-4.2488167E-001	3.967413364295043E-001
-4.2360809E-001	3.972063131492445E-001
-4.2316788E-001	3.974841146695383E-001
-4.2240784E-001	3.977297936526476E-001
-4.2115346E-001	3.981080288412402E-001
-4.2018709E-001	3.983569041722355E-001
-4.1939312E-001	3.986956035576839E-001
-4.1788784E-001	3.989979827569599E-001
-4.1702935E-001	3.992455335402938E-001
-4.1695699E-001	3.994908174784815E-001
-4.1533297E-001	3.999163607066407E-001
-4.1470996E-001	4.002303998341485E-001
-4.1307700E-001	4.003861754166866E-001
-4.1150025E-001	4.006289721777030E-001
-4.1149116E-001	4.010513286378909E-001
-4.1009295E-001	4.014009964410903E-001
-4.0840808E-001	4.015494420158667E-001
-4.0796652E-001	4.019028640261908E-001
-4.0695244E-001	4.022182130979175E-001
-4.0637735E-001	4.024772763390239E-001
-4.0563244E-001	4.028381110945164E-001
-4.0445417E-001	4.030386395752448E-001
-4.0261143E-001	4.033785914243371E-001
-4.0213251E-001	4.038533372579529E-001
-4.0164137E-001	4.041140852151095E-001
-4.0041479E-001	4.041705904825212E-001
-3.9892447E-001	4.046308509315626E-001
-3.9822271E-001	4.047882285107089E-001
-3.9754388E-001	4.050862962535584E-001
-3.9616805E-001	4.051799047738305E-001
-3.9526868E-001	4.056199295101353E-001
-3.9418024E-001	4.057960022786311E-001
-3.9360791E-001	4.060329013262614E-001
-3.9202246E-001	4.063961929469206E-001
-3.9128467E-001	4.067377861591490E-001
-3.8996267E-001	4.067594382773931E-001
-3.8890252E-001	4.072201590458877E-001
-3.8824150E-001	4.075224928005983E-001
-3.8705868E-001	4.077601574223362E-001
-3.8602081E-001	4.080189301193977E-001
-3.8524690E-001	4.082562279784017E-001
-3.8414112E-001	4.085004206194931E-001
-3.8305876E-001	4.088659494929390E-001
-3.8241926E-001	4.090218933092213E-001
-3.8166687E-001	4.094858575198383E-001
-3.8022774E-001	4.096318323523267E-001
-3.7979293E-001	4.099618942925218E-001
-3.7807018E-001	4.100877219052235E-001
-3.7694469E-001	4.103416100083406E-001
-3.7571090E-001	4.106153391853500E-001
-3.7461028E-001	4.109295799307144E-001
-3.7419254E-001	4.111482696262749E-001
-3.7363780E-001	4.115069428527782E-001
-3.7179312E-001	4.117837739445633E-001
-3.7126279E-001	4.119878819695213E-001
-3.7034348E-001	4.122783892132618E-001
-3.6892733E-001	4.125465650685252E-001
-3.6847487E-001	4.126804422725128E-001
-3.6763313E-001	4.129974346745868E-001
-3.6652261E-001	4.130161980017379E-001
-3.6557636E-001	4.134565352427746E-001
-3.6392003E-001	4.138475719977315E-001
-3.6361355E-001	4.140782706985400E-001
-3.6267233E-001	4.140853712128258E-001
-3.6102527E-001	4.145711779141461E-001
-3.6025894E-001	4.146789947731628E-001
-3.5923266E-001	4.150192445764945E-001
-3.5807529E-001	4.152403514812906E-001
-3.5730425E-001	4.155673110788645E-001
-3.5629278E-001	4.156082095233380E-001
-3.5530749E-001	4.159751782690790E-001
-3.5378778E-001	4.161052208531810E-001
-3.5330057E-001	4.166334410094521E-001
-3.5185647E-001	4.163387990055405E-001
-3.5153499E-001	4.168988981594639E-001
-3.5005862E-001	4.170235395431543E-001
-3.4934989E-001	4.172081971262109E-001
-3.4802982E-001	4.175378590546259E-001
-3.4732181E-001	4.177372276940261E-001
-3.4616286E-001	4.179199776025841E-001
-3.4542572E-001	4.183357293131182E-001
-3.4441242E-001	4.183909759270055E-001
-3.4345886E-001	4.187726223910282E-001
-3.4248728E-001	4.189825549859698E-001
-3.4154981E-001	4.190898047189142E-001
-3.3992779E-001	4.194119727170031E-001
-3.3881751E-001	4.197425646362465E-001
-3.3831283E-001	4.199826013346035E-001
-3.3761263E-001	4.201761985680577E-001
-3.3621007E-001	4.203556505626216E-001
-3.3509108E-001	4.205806945899013E-001
-3.3479896E-001	4.206901085045605E-001
-3.3309326E-001	4.210295265698658E-001
-3.3229694E-001	4.213012322369547E-001
-3.3123842E-001	4.214085394999505E-001
-3.3017129E-001	4.217668312563045E-001
-3.2918718E-001	4.218112147516679E-001
-3.2840124E-001	4.221163581780800E-001
-3.2693225E-001	4.222995413418071E-001
-3.2603216E-001	4.226729411079937E-001
-3.2487294E-001	4.227418745695442E-001
-3.2420659E-001	4.230249047387362E-001
-3.2363576E-001	4.231791104431508E-001
-3.2235748E-001	4.235535435541982E-001
-3.2092205E-001	4.237082584036735E-001
-3.2065302E-001	4.238927551993612E-001
-3.1948721E-001	4.240941569338474E-001
-3.1829354E-001	4.242683898105670E-001
-3.1692472E-001	4.244957522109698E-001
-3.1603000E-001	4.247535868569763E-001
-3.1536323E-001	4.250511705047550E-001
-3.1436133E-001	4.251917586144468E-001
-3.1304657E-001	4.253247108309623E-001
-3.1199828E-001	4.255946846333931E-001
-3.1127676E-001	4.257792255408821E-001
-3.0980930E-001	4.261626170741177E-001
-3.0945083E-001	4.263095961952637E-001
-3.0788130E-001	4.264399263781620E-001
-3.0672437E-001	4.267054394715366E-001
-3.0635759E-001	4.265247166018797E-001
-3.0547786E-001	4.269310957640506E-001
-3.0393144E-001	4.271977274782126E-001
-3.0334622E-001	4.273551765967301E-001
-3.0195037E-001	4.277404728806244E-001
-3.0122942E-001	4.277557972128734E-001
-3.0065370E-001	4.280754240850602E-001
-2.9957348E-001	4.282711587931898E-001
-2.9817393E-001	4.285338844552080E-001
-2.9697439E-001	4.286949754217400E-001
-2.9644889E-001	4.289861284196397E-001
-2.9503953E-001	4.292619347020441E-001
-2.9452404E-001	4.295355571441526E-001
-2.9280752E-001	4.295542618880690E-001
-2.9210520E-001	4.297872320231466E-001
-2.9086310E-001	4.300827854482350E-001
-2.9020301E-001	4.301895068751449E-001
-2.8888699E-001	4.303757458649304E-001
-2.8846157E-001	4.305390246850509E-001
-2.8680539E-001	4.305810417152118E-001
-2.8579965E-001	4.307664808713731E-001
-2.8513336E-001	4.310844140352241E-001
-2.8437164E-001	4.313549552526741E-001
-2.8349566E-001	4.316091039740311E-001
-2.8206751E-001	4.316700297511300E-001
-2.8089169E-001	4.319908457497768E-001
-2.8006363E-001	4.321474321653094E-001
-2.7952772E-001	4.322750083412270E-001
-2.7805132E-001	4.325342774391180E-001
-2.7721518E-001	4.326177868611032E-001
-2.7610293E-001	4.329454280022125E-001
-2.7557576E-001	4.330256390902756E-001
-2.7435285E-001	4.332551793946076E-001
-2.7232155E-001	4.333180188442828E-001
-2.7250883E-001	4.335511120027267E-001
-2.7134359E-001	4.338474081898163E-001
-2.7016929E-001	4.338611216732744E-001
-2.6944640E-001	4.340278848806483E-001
-2.6842457E-001	4.343488517872713E-001
-2.6709512E-001	4.344248262544470E-001
-2.6647085E-001	4.346480652801032E-001
-2.6518598E-001	4.349328510601214E-001
-2.6422462E-001	4.349634171360082E-001
-2.6375714E-001	4.351481004900348E-001
-2.6219478E-001	4.354877304285765E-001
-2.6155567E-001	4.355742522963784E-001
-2.6059043E-001	4.358732827583651E-001
-2.5971350E-001	4.360071986361789E-001
-2.5840878E-001	4.361151001089940E-001
-2.5743082E-001	4.363759286977640E-001
-2.5588927E-001	4.364636145118217E-001
-2.5540489E-001	4.368082382031293E-001
-2.5415793E-001	4.369268053797661E-001
-2.5300732E-001	4.370809465094860E-001
-2.5226218E-001	4.372710262353330E-001
-2.5111666E-001	4.374502874496893E-001
-2.4992213E-001	4.376936415555317E-001
-2.4926844E-001	4.377961315162704E-001
-2.4829277E-001	4.379875949687422E-001
-2.4751829E-001	4.380817947978222E-001
-2.4659894E-001	4.382559152353043E-001
-2.4497701E-001	4.383751355387542E-001
-2.4432774E-001	4.385277315297144E-001
-2.4300911E-001	4.388744762098340E-001
-2.4255727E-001	4.389717040790457E-001
-2.4126942E-001	4.393502304507884E-001
-2.4068633E-001	4.393348699366606E-001
-2.3917769E-001	4.395398327873803E-001
-2.3853736E-001	4.398414397219685E-001
-2.3796810E-001	4.400111528596407E-001
-2.3622295E-001	4.401088886100935E-001
-2.3549548E-001	4.402884589068385E-001
-2.3437804E-001	4.404536246977488E-001
-2.3288950E-001	4.404876681479308E-001
-2.3201391E-001	4.407635517418393E-001
-2.3127529E-001	4.408259320728209E-001
-2.3068610E-001	4.409959155512206E-001
-2.2873846E-001	4.413803843436410E-001
-2.2837466E-001	4.414187075777209E-001
-2.2779095E-001	4.416277795413892E-001
-2.2583720E-001	4.418238500064167E-001
-2.2500588E-001	4.419038235727282E-001
-2.2410919E-001	4.421925352978473E-001
-2.2354876E-001	4.420886098372745E-001
-2.2234578E-001	4.423927216342216E-001
-2.2162955E-001	4.422692465731330E-001
-2.2064665E-001	4.425117189961467E-001
-2.1952899E-001	4.427835955837823E-001
-2.1781199E-001	4.430000055581331E-001
-2.1717837E-001	4.430136005911578E-001
-2.1648188E-001	4.432566262834410E-001
-2.1549492E-001	4.433334857501361E-001
-2.1460739E-001	4.437058128554501E-001
-2.1337993E-001	4.438571617866283E-001
-2.1187285E-001	4.440341718080978E-001
-2.1148254E-001	4.442325273045795E-001
-2.1052782E-001	4.443078824578643E-001
-2.0948324E-001	4.443774628280472E-001
-2.0836087E-001	4.446288409332437E-001
-2.0786619E-001	4.447932791162792E-001
-2.0637578E-001	4.449438865262039E-001
-2.0521675E-001	4.450489175353685E-001
-2.0441125E-001	4.452042880433574E-001
-2.0297517E-001	4.455248587937266E-001
-2.0277514E-001	4.456092216322070E-001
-2.0160334E-001	4.457280762079670E-001
-2.0062524E-001	4.459288435539716E-001
-1.9967152E-001	4.460942047652621E-001
-1.9836542E-001	4.460923197092841E-001
-1.9753790E-001	4.463149676858276E-001
-1.9580083E-001	4.465803283440977E-001
-1.9494210E-001	4.468276076432733E-001
-1.9414426E-001	4.468340972884377E-001
-1.9308451E-001	4.469570331965329E-001
-1.9230600E-001	4.471404954653098E-001
-1.9098631E-001	4.472696959147129E-001
-1.9003813E-001	4.474724400788546E-001
-1.8901950E-001	4.476230928191409E-001
-1.8818724E-001	4.476110291060982E-001
-1.8686387E-001	4.479180689625153E-001
-1.8637873E-001	4.482566975057134E-001
-1.8565632E-001	4.481454328262728E-001
-1.8390234E-001	4.485719555092071E-001
-1.8328889E-001	4.485343315949040E-001
-1.8209201E-001	4.487749188019521E-001
-1.8153991E-001	4.487751633342763E-001
-1.8036442E-001	4.490181581321631E-001
-1.7917214E-001	4.491227756909737E-001
-1.7795175E-001	4.491996635441433E-001
-1.7744577E-001	4.493570123066242E-001
-1.7622524E-001	4.494071070242813E-001
-1.7542700E-001	4.497677770753707E-001
-1.7388780E-001	4.498612247704443E-001
-1.7284945E-001	4.499346733231242E-001
-1.7259575E-001	4.501747116446513E-001
-1.7056674E-001	4.503779061520286E-001
-1.7022818E-001	4.503149791724157E-001
-1.6935869E-001	4.506940274602846E-001
-1.6834408E-001	4.506379387186972E-001
-1.6748750E-001	4.509692416974795E-001
-1.6697697E-001	4.510530888535724E-001
-1.6530387E-001	4.512292797228814E-001
-1.6413909E-001	4.513574738607353E-001
-1.6264208E-001	4.514144860077103E-001
-1.6225751E-001	4.515252915659467E-001
-1.6105814E-001	4.518665399540367E-001
-1.6005646E-001	4.517388685158892E-001
-1.5981145E-001	4.518221770585704E-001
-1.5780793E-001	4.521044234710709E-001
-1.5756607E-001	4.522016841514445E-001
-1.5661365E-001	4.524597075112453E-001
-1.5489542E-001	4.525415487986066E-001
-1.5423080E-001	4.526625473604167E-001
-1.5284881E-001	4.527106149880975E-001
-1.5191565E-001	4.527902688126710E-001
-1.5133104E-001	4.530406114817769E-001
-1.4996345E-001	4.531763896208112E-001
-1.4964177E-001	4.533932389544351E-001
-1.4837100E-001	4.535533542986268E-001
-1.4704585E-001	4.537324766731938E-001
-1.4672202E-001	4.536863988331117E-001
-1.4516449E-001	4.538383439735130E-001
-1.4397977E-001	4.540155716930272E-001
-1.4371046E-001	4.541850975110087E-001
-1.4248067E-001	4.543180974131378E-001
-1.4106652E-001	4.543599988825706E-001
-1.4007281E-001	4.545239379146588E-001
-1.3933587E-001	4.547299231506061E-001
-1.3825724E-001	4.548157524368746E-001
-1.3706717E-001	4.549487375964709E-001
-1.3646515E-001	4.550240704168891E-001
-1.3510296E-001	4.551872805524839E-001
-1.3455622E-001	4.552953724094015E-001
-1.3358934E-001	4.555884387896016E-001
-1.3207558E-001	4.556042145578028E-001
-1.3141695E-001	4.558665043915875E-001
-1.3016751E-001	4.560381738400021E-001
-1.2951586E-001	4.560184870245152E-001
-1.2802248E-001	4.561788314884474E-001
-1.2778708E-001	4.562868235192026E-001
-1.2651297E-001	4.563712725346827E-001
-1.2588635E-001	4.566338238202849E-001
-1.2417923E-001	4.565558293284502E-001
-1.2377780E-001	4.567618552871338E-001
-1.2226682E-001	4.569182206221196E-001
-1.2085552E-001	4.571320758687287E-001
-1.2064829E-001	4.572465610173024E-001
-1.1969859E-001	4.572574698400729E-001
-1.1833228E-001	4.574358291265170E-001
-1.1752726E-001	4.576211993203092E-001
-1.1652905E-001	4.575566883460143E-001
-1.1514359E-001	4.578019818636001E-001
-1.1446752E-001	4.579419539896432E-001
-1.1359449E-001	4.580084476099913E-001
-1.1212204E-001	4.583169994530838E-001
-1.1071435E-001	4.583170482957821E-001
-1.1051917E-001	4.584317596854781E-001
-1.0930584E-001	4.584859416440654E-001
-1.0848044E-001	4.587954731175223E-001
-1.0710955E-001	4.587955546276250E-001
-1.0644869E-001	4.587446719546016E-001
-1.0519693E-001	4.590068298771435E-001
-1.0466047E-001	4.591462657623429E-001
-1.0331006E-001	4.593115582096363E-001
-1.0226590E-001	4.594841104909024E-001
-1.0165673E-001	4.594142707409681E-001
-1.0040094E-001	4.595026976808372E-001
-9.9775910E-002	4.596488631138431E-001
-9.8096818E-002	4.596797685242358E-001
-9.7500943E-002	4.599721579364067E-001
-9.6167825E-002	4.599167338868617E-001
-9.5407248E-002	4.600647425761926E-001
-9.4489582E-002	4.603215302858121E-001
-9.3166105E-002	4.602246091520357E-001
-9.1972493E-002	4.603224039353702E-001
-9.1476321E-002	4.606027445859358E-001
-9.0554833E-002	4.608974563356814E-001
-8.9647129E-002	4.610908154950071E-001
-8.7766901E-002	4.613818520314104E-001
-8.7540291E-002	4.613853897209541E-001
-8.6076185E-002	4.615221220172128E-001
-8.5669428E-002	4.615873084237476E-001
-8.4137551E-002	4.616486036253207E-001
-8.3555475E-002	4.617310640298662E-001
-8.2869671E-002	4.618044767961302E-001
-8.1368230E-002	4.618049844133632E-001
-8.0504231E-002	4.620728302333088E-001
-7.8944325E-002	4.619868441665052E-001
-7.8211352E-002	4.621293651698899E-001
-7.7176183E-002	4.619479612846993E-001
-7.6425873E-002	4.622329053365517E-001
-7.5152263E-002	4.623879722698967E-001
-7.4658580E-002	4.625013693595363E-001
-7.3293388E-002	4.628216102029468E-001
-7.2254814E-002	4.628646355812199E-001
-7.0759051E-002	4.630830130134882E-001
-7.0374727E-002	4.630444065012330E-001
-6.9210358E-002	4.629702975076651E-001
-6.8563700E-002	4.633073033397892E-001
-6.7294218E-002	4.633514718325031E-001
-6.6341549E-002	4.638297862062858E-001
-6.5153852E-002	4.639937200743987E-001
-6.4339705E-002	4.640040305891517E-001
-6.2996216E-002	4.641731376390731E-001
-6.2371582E-002	4.642353257233331E-001
-6.1341286E-002	4.639882883401949E-001
-6.0473762E-002	4.645528343651755E-001
-5.9591871E-002	4.645296066171603E-001
-5.8338620E-002	4.646042572265433E-001
-5.7457808E-002	4.646961340191740E-001
-5.7021942E-002	4.647249649796228E-001
-5.5681933E-002	4.648673919339963E-001
-5.4541640E-002	4.648876843265115E-001
-5.3382684E-002	4.649983446493184E-001
-5.2925121E-002	4.652854323525117E-001
-5.1300652E-002	4.652747944141371E-001
-5.0136074E-002	4.655456135946299E-001
-4.9231719E-002	4.657873026522825E-001
-4.8485931E-002	4.658100881648291E-001
-4.7391359E-002	4.658940331665447E-001
-4.6552878E-002	4.659606936773351E-001
-4.5415390E-002	4.660876523013471E-001
-4.3973140E-002	4.660628761544281E-001
-4.3369003E-002	4.661189176993288E-001
-4.2535335E-002	4.664661538683696E-001
-4.1390274E-002	4.665589693381835E-001
-3.9681356E-002	4.667377199358154E-001
-3.9376546E-002	4.668339595060651E-001
-3.8421139E-002	4.667972922089466E-001
-3.7494976E-002	4.668463974225290E-001
-3.6393188E-002	4.669660983814121E-001
-3.5063148E-002	4.669519816715706E-001
-3.4434408E-002	4.669732051315121E-001
-3.3282761E-002	4.665416074157864E-001
-3.2157045E-002	4.653556888937413E-001
-3.1502802E-002	4.651849300911037E-001
-3.0347979E-002	4.653266012944570E-001
-2.9102173E-002	4.654717618543440E-001
-2.8453894E-002	4.655593447387227E-001
-2.7771477E-002	4.658606331795471E-001
-2.6596081E-002	4.657212398082464E-001
-2.5531625E-002	4.660141826089901E-001
-2.3943909E-002	4.658837473967283E-001
-2.3379805E-002	4.659343795092035E-001
-2.2042131E-002	4.661500845794304E-001
-2.1397538E-002	4.661368976667988E-001
-2.0116648E-002	4.662814583215429E-001
-1.9030768E-002	4.661504573154227E-001
-1.7900966E-002	4.665854446763582E-001
-1.7064350E-002	4.666546650092918E-001
-1.6249567E-002	4.668527451792244E-001
-1.5440717E-002	4.666513096866929E-001
-1.4089261E-002	4.670356478266160E-001
-1.3223568E-002	4.671589327907135E-001
-1.2157841E-002	4.672538853563877E-001
-1.1736343E-002	4.675032437123661E-001
-1.0527700E-002	4.675196914028090E-001
-8.9258673E-003	4.677950189345417E-001
-8.3314870E-003	4.678324519622126E-001
-7.4495268E-003	4.678013223491826E-001
-6.4957356E-003	4.677802274624505E-001
-5.4669171E-003	4.678901768530952E-001
-4.5734751E-003	4.678693005067771E-001
-3.9733280E-003	4.680850633454545E-001
-2.5872875E-003	4.680922926162140E-001
-1.5941861E-003	4.684929102581084E-001
-3.7713174E-004	4.688830068679880E-001
7.3159655E-004	4.688827533361799E-001
2.1783663E-003	4.691390534517943E-001
3.0794831E-003	4.690895944971731E-001
3.6499621E-003	4.691203063690166E-001
4.5177066E-003	4.690601182756602E-001
5.4321871E-003	4.691010865348364E-001
6.4076441E-003	4.693557521279850E-001
7.2274236E-003	4.697711819952186E-001