EC-Lab ASCII FILE
Nb header lines : 63                          

Linear Sweep Voltammetry

Run on channel : 6 (SN 13765)
User : 
Electrode connection : standard
Potential control : Ewe
Ewe ctrl range : min = -2.50 V, max = 2.50 V
Ewe,I filtering : <None>
Safety Limits :
	Do not start on E overload
Channel : Floating
Acquisition started on : 07/17/2026 15:11:07.065
Technique started on : 07/17/2026 15:11:08.062
Loaded Setting File :  C:\Users\EEM-620\Desktop\Wade\abao\20260629\N719_0629-0-1_C06.mpr
Saved on :
	File : N719_0717-c-2_C06.mpr
	Directory : C:\Users\EEM-620\Desktop\Wade\abao\20260717\
	Host : 192.109.209.200
Device : VSP-300 (SN 0025)
Address : 192.109.209.129
EC-LAB for windows v11.62 (software)
Internet server v27.00 (firmware)
Command interpretor v12.02 (firmware)
Electrode material : Au/Pd
Initial state : 
Electrolyte : NaCl (0.2M)
Comments : Fe(CN)63-/Fe(CN)64- 5.10-3 M
Cable : ULC
Reference electrode : SCE Saturated Calomel Electrode (0.241 V)
Electrode surface area : 0.001 cm2
Characteristic mass : 0.001 g
Equivalent Weight : 0.000 g/eq.
Density : 0.000 g/cm3
Volume (V) : 0.001 cm3
Cycle Definition : Charge/Discharge alternance
tR (h:m:s)          0:00:5.0000         
dER/dt (mV/h)       0.0                 
dER (mV)            0                   
dtR (s)             0.0500              
dE/dt               10.000              
dE/dt unit          mV/s                
Ei (V)              -0.800              
vs.                 Ref                 
EL (V)              0.010               
vs.                 Ref                 
record              <I>                 
dI                  0.000               
unit dI             uA                  
tI (s)              0.0000              
step percent        50                  
N                   10                  
E range min (V)     -2.500              
E range max (V)     2.500               
I Range             Auto                
I Range min         Unset               
I Range max         Unset               
I Range init        Unset               
Bandwidth           8                   

Ewe/V	<I>/mA	
-6.0927033E-001	0.000000000000000E+000
-6.0854864E-001	0.000000000000000E+000
-6.0810959E-001	0.000000000000000E+000
-6.0773915E-001	0.000000000000000E+000
-6.0709769E-001	0.000000000000000E+000
-6.0755593E-001	0.000000000000000E+000
-6.0839975E-001	0.000000000000000E+000
-6.0727334E-001	0.000000000000000E+000
-6.0867465E-001	0.000000000000000E+000
-6.0731155E-001	0.000000000000000E+000
-6.0754442E-001	0.000000000000000E+000
-6.0786140E-001	0.000000000000000E+000
-6.0880452E-001	0.000000000000000E+000
-6.0775447E-001	0.000000000000000E+000
-6.0720468E-001	0.000000000000000E+000
-6.0754061E-001	0.000000000000000E+000
-6.0749102E-001	0.000000000000000E+000
-6.0762465E-001	0.000000000000000E+000
-6.0788429E-001	0.000000000000000E+000
-6.0809815E-001	0.000000000000000E+000
-6.0751009E-001	0.000000000000000E+000
-6.0747576E-001	0.000000000000000E+000
-6.0703665E-001	0.000000000000000E+000
-6.0708249E-001	0.000000000000000E+000
-6.0756356E-001	0.000000000000000E+000
-6.0752153E-001	0.000000000000000E+000
-6.0556662E-001	0.000000000000000E+000
-6.0759026E-001	0.000000000000000E+000
-6.0650587E-001	0.000000000000000E+000
-6.0737646E-001	0.000000000000000E+000
-6.0764754E-001	0.000000000000000E+000
-6.0662806E-001	0.000000000000000E+000
-6.0741848E-001	0.000000000000000E+000
-6.0776210E-001	0.000000000000000E+000
-6.0684568E-001	0.000000000000000E+000
-6.0682279E-001	0.000000000000000E+000
-6.0591406E-001	0.000000000000000E+000
-6.0704046E-001	0.000000000000000E+000
-6.0510838E-001	0.000000000000000E+000
-6.0600567E-001	0.000000000000000E+000
-6.0612023E-001	0.000000000000000E+000
-6.0608202E-001	0.000000000000000E+000
-6.0682666E-001	0.000000000000000E+000
-6.0579568E-001	0.000000000000000E+000
-6.0646391E-001	0.000000000000000E+000
-6.0674644E-001	0.000000000000000E+000
-6.0600573E-001	0.000000000000000E+000
-6.0655552E-001	0.000000000000000E+000
-6.0673118E-001	0.000000000000000E+000
-6.0606682E-001	0.000000000000000E+000
-6.0567731E-001	0.000000000000000E+000
-6.0592550E-001	0.000000000000000E+000
-6.0742229E-001	0.000000000000000E+000
-6.0604769E-001	0.000000000000000E+000
-6.0571170E-001	0.000000000000000E+000
-6.0565823E-001	0.000000000000000E+000
-6.0517710E-001	0.000000000000000E+000
-6.0635316E-001	0.000000000000000E+000
-6.0514277E-001	0.000000000000000E+000
-6.0594076E-001	0.000000000000000E+000
-6.0439819E-001	0.000000000000000E+000
-6.1007220E-001	0.000000000000000E+000
-6.0959870E-001	0.000000000000000E+000
-7.8974956E-001	-1.964325775702795E-001
-7.8900731E-001	-2.130693340398095E-001
-7.8834575E-001	-2.133280728702180E-001
-7.8739208E-001	-2.106607533271185E-001
-7.8632873E-001	-2.080981192972384E-001
-7.8520602E-001	-2.057161854786997E-001
-7.8448480E-001	-2.036188531836296E-001
-7.8309673E-001	-2.017491686813258E-001
-7.8231204E-001	-1.999103308620827E-001
-7.8118330E-001	-1.982130646324585E-001
-7.8004950E-001	-1.965812699248386E-001
-7.7948123E-001	-1.950333028755802E-001
-7.7833301E-001	-1.935190360283778E-001
-7.7720082E-001	-1.920310715730821E-001
-7.7626115E-001	-1.905644909900750E-001
-7.7534920E-001	-1.891778775801263E-001
-7.7441227E-001	-1.878312094550990E-001
-7.7309418E-001	-1.864772591933965E-001
-7.7186996E-001	-1.851142472242588E-001
-7.7093679E-001	-1.838069063852785E-001
-7.6954961E-001	-1.825814316364145E-001
-7.6857597E-001	-1.811571758999326E-001
-7.6800734E-001	-1.799711970681397E-001
-7.6689649E-001	-1.786832698000969E-001
-7.6615053E-001	-1.774367594022159E-001
-7.6493108E-001	-1.761401262375761E-001
-7.6450241E-001	-1.749057084353467E-001
-7.6327580E-001	-1.737338661181704E-001
-7.6253659E-001	-1.725682192621085E-001
-7.6081508E-001	-1.712894727372462E-001
-7.6039326E-001	-1.700491130834925E-001
-7.5911081E-001	-1.688611108918772E-001
-7.5798428E-001	-1.677221765017340E-001
-7.5692981E-001	-1.665233214109855E-001
-7.5632089E-001	-1.652964349821492E-001
-7.5493753E-001	-1.641771302868924E-001
-7.5428432E-001	-1.629905256925628E-001
-7.5299996E-001	-1.617947510282471E-001
-7.5187457E-001	-1.606665267609060E-001
-7.5129682E-001	-1.594449031876439E-001
-7.5030249E-001	-1.583886158790573E-001
-7.4864709E-001	-1.571928994316201E-001
-7.4790025E-001	-1.560750039616801E-001
-7.4717087E-001	-1.549213268897605E-001
-7.4618095E-001	-1.537998504936700E-001
-7.4522579E-001	-1.527375699037485E-001
-7.4404937E-001	-1.516065891935594E-001
-7.4336678E-001	-1.505098518467061E-001
-7.4240249E-001	-1.493523225317763E-001
-7.4037790E-001	-1.482653506617586E-001
-7.3985124E-001	-1.472408791866016E-001
-7.3919791E-001	-1.461115771441179E-001
-7.3797172E-001	-1.449127805212301E-001
-7.3673451E-001	-1.438840948217985E-001
-7.3621112E-001	-1.428480420296114E-001
-7.3538977E-001	-1.417082213210283E-001
-7.3404717E-001	-1.405963042382945E-001
-7.3310995E-001	-1.395470061235955E-001
-7.3206300E-001	-1.385205646079997E-001
-7.3138177E-001	-1.374089565166090E-001
-7.3022145E-001	-1.363067762339831E-001
-7.2918373E-001	-1.353262835182250E-001
-7.2790700E-001	-1.342822273726987E-001
-7.2712690E-001	-1.331943762833601E-001
-7.2581917E-001	-1.320612233959961E-001
-7.2518021E-001	-1.310958823971999E-001
-7.2398657E-001	-1.300509543916968E-001
-7.2324073E-001	-1.289577190144538E-001
-7.2249049E-001	-1.279954791793394E-001
-7.2094637E-001	-1.268713637427600E-001
-7.2040457E-001	-1.258365328362860E-001
-7.1895748E-001	-1.248575839283013E-001
-7.1772349E-001	-1.238288015506610E-001
-7.1712846E-001	-1.227804100140055E-001
-7.1601427E-001	-1.217195854901717E-001
-7.1486396E-001	-1.208112491639679E-001
-7.1420723E-001	-1.198349552107030E-001
-7.1303332E-001	-1.188204049098267E-001
-7.1183515E-001	-1.177566054728847E-001
-7.1101063E-001	-1.168904558548496E-001
-7.1030289E-001	-1.158090430242873E-001
-7.0920920E-001	-1.148386251076059E-001
-7.0820475E-001	-1.138430702051634E-001
-7.0728409E-001	-1.128950884945139E-001
-7.0623028E-001	-1.119663374399009E-001
-7.0492715E-001	-1.109519815072414E-001
-7.0386702E-001	-1.099772433474384E-001
-7.0334929E-001	-1.090653969287673E-001
-7.0220071E-001	-1.080341440522012E-001
-7.0129961E-001	-1.070495752307277E-001
-7.0045108E-001	-1.061720723134800E-001
-6.9922727E-001	-1.051481550007507E-001
-6.9802815E-001	-1.042252673334116E-001
-6.9677979E-001	-1.032910288001101E-001
-6.9630891E-001	-1.023604377621297E-001
-6.9545501E-001	-1.014768167091705E-001
-6.9477564E-001	-1.005160827879554E-001
-6.9301891E-001	-9.960769470436137E-002
-6.9197416E-001	-9.856944954085067E-002
-6.9130862E-001	-9.768107339429366E-002
-6.9000256E-001	-9.676416498539897E-002
-6.8913847E-001	-9.582555000703774E-002
-6.8823874E-001	-9.489823983016410E-002
-6.8715566E-001	-9.404377952164911E-002
-6.8596762E-001	-9.311299365772707E-002
-6.8503106E-001	-9.219123021251052E-002
-6.8424165E-001	-9.127314122960861E-002
-6.8274182E-001	-9.034561865135204E-002
-6.8182337E-001	-8.941091674690471E-002
-6.8147576E-001	-8.859628725863167E-002
-6.8000787E-001	-8.767988807004379E-002
-6.7885226E-001	-8.675397038287280E-002
-6.7807931E-001	-8.591352191085910E-002
-6.7682195E-001	-8.498305953280239E-002
-6.7642832E-001	-8.405366578760229E-002
-6.7510372E-001	-8.323921189207006E-002
-6.7458642E-001	-8.231379209879675E-002
-6.7310601E-001	-8.148445804480398E-002
-6.7230368E-001	-8.059361751225813E-002
-6.7145681E-001	-7.969449467405135E-002
-6.6971910E-001	-7.881529667574891E-002
-6.6897982E-001	-7.795200583145562E-002
-6.6812938E-001	-7.714716501154562E-002
-6.6718650E-001	-7.628572625544416E-002
-6.6596061E-001	-7.538672405536528E-002
-6.6514289E-001	-7.449855742527656E-002
-6.6376412E-001	-7.365688939012571E-002
-6.6324073E-001	-7.271965606896935E-002
-6.6218120E-001	-7.198434354116523E-002
-6.6143239E-001	-7.109808970104764E-002
-6.5967739E-001	-7.031937731705859E-002
-6.5861213E-001	-6.944973885498440E-002
-6.5849477E-001	-6.856802859585008E-002
-6.5693420E-001	-6.775277035517824E-002
-6.5611243E-001	-6.686223813528214E-002
-6.5515894E-001	-6.595952919235937E-002
-6.5399384E-001	-6.526484408553840E-002
-6.5294260E-001	-6.436528355645937E-002
-6.5178460E-001	-6.350236488678673E-002
-6.5134060E-001	-6.269226324985977E-002
-6.5021288E-001	-6.190768842765038E-002
-6.4944202E-001	-6.108515263811021E-002
-6.4857084E-001	-6.019921594782290E-002
-6.4757997E-001	-5.938673197500255E-002
-6.4625990E-001	-5.859576271743427E-002
-6.4510471E-001	-5.781436657885436E-002
-6.4402515E-001	-5.693656056084551E-002
-6.4328259E-001	-5.613497547218937E-002
-6.4238793E-001	-5.528602887342926E-002
-6.4120942E-001	-5.452197578873608E-002
-6.4021599E-001	-5.374175913769874E-002
-6.3847882E-001	-5.294659293524623E-002
-6.3814843E-001	-5.211144569329906E-002
-6.3742334E-001	-5.130380894816322E-002
-6.3603604E-001	-5.054746150088563E-002
-6.3472998E-001	-4.968880216108162E-002
-6.3422626E-001	-4.894475379213781E-002
-6.3320333E-001	-4.814853314396550E-002
-6.3239932E-001	-4.737799436595547E-002
-6.3163853E-001	-4.658655157523450E-002
-6.2996703E-001	-4.569996259589182E-002
-6.2901759E-001	-4.497019690030291E-002
-6.2850654E-001	-4.419087133445632E-002
-6.2701046E-001	-4.330016056472374E-002
-6.2551606E-001	-4.253815361549929E-002
-6.2498206E-001	-4.176700199281602E-002
-6.2409687E-001	-4.097798477030461E-002
-6.2341458E-001	-4.020673295151778E-002
-6.2188607E-001	-3.942348090155673E-002
-6.2123042E-001	-3.866366613052635E-002
-6.2002760E-001	-3.789150253247181E-002
-6.1875808E-001	-3.714818568658762E-002
-6.1823493E-001	-3.638099535385614E-002
-6.1712092E-001	-3.563014502014938E-002
-6.1605155E-001	-3.489778271048433E-002
-6.1455733E-001	-3.411336291012257E-002
-6.1439884E-001	-3.333162920472274E-002
-6.1290592E-001	-3.257228010247815E-002
-6.1163485E-001	-3.181321814590787E-002
-6.1053091E-001	-3.108570430238089E-002
-6.0976732E-001	-3.035812152773837E-002
-6.0912764E-001	-2.958144916901378E-002
-6.0825247E-001	-2.885944643316579E-002
-6.0658276E-001	-2.808975255444514E-002
-6.0609603E-001	-2.737928822682362E-002
-6.0496914E-001	-2.661916416966247E-002
-6.0383874E-001	-2.591246234132327E-002
-6.0273188E-001	-2.517443213435366E-002
-6.0217690E-001	-2.441560964022471E-002
-6.0050279E-001	-2.371487477837403E-002
-5.9985155E-001	-2.297425272048944E-002
-5.9864348E-001	-2.226332254509478E-002
-5.9791172E-001	-2.152476494930727E-002
-5.9682035E-001	-2.079412199910388E-002
-5.9597707E-001	-2.010586273563272E-002
-5.9494126E-001	-1.939554535636902E-002
-5.9391165E-001	-1.870333818563577E-002
-5.9320074E-001	-1.798119830804090E-002
-5.9175491E-001	-1.730851998329348E-002
-5.9088963E-001	-1.660870401516416E-002
-5.9025002E-001	-1.587219592787464E-002
-5.8908510E-001	-1.517332029605467E-002
-5.8767402E-001	-1.446540277511632E-002
-5.8716261E-001	-1.378864591399814E-002
-5.8579242E-001	-1.307907567954522E-002
-5.8466643E-001	-1.240584199075348E-002
-5.8392060E-001	-1.166846439448462E-002
-5.8304965E-001	-1.096438760200893E-002
-5.8189970E-001	-1.029501280303255E-002
-5.8101934E-001	-9.582739643531929E-003
-5.8002126E-001	-8.935157525465226E-003
-5.7892227E-001	-8.211084582230632E-003
-5.7795089E-001	-7.577216647049433E-003
-5.7740915E-001	-6.875600369379842E-003
-5.7604706E-001	-6.204177097835648E-003
-5.7515323E-001	-5.544888084744543E-003
-5.7368928E-001	-4.857844997550945E-003
-5.7264793E-001	-4.009916094210211E-003
-5.7178336E-001	-3.254522809853643E-003
-5.7054216E-001	-2.583503065074589E-003
-5.6951219E-001	-1.901486930878306E-003
-5.6901801E-001	-1.284482621553312E-003
-5.6799746E-001	-5.658760589573857E-004
-5.6655902E-001	6.006661888627264E-005
-5.6604803E-001	7.732905546112695E-004
-5.6449682E-001	1.415534234506938E-003
-5.6343675E-001	2.006882331409513E-003
-5.6319743E-001	2.708795931539503E-003
-5.6167036E-001	3.327624009775126E-003
-5.6058657E-001	4.011858121009085E-003
-5.5970711E-001	4.698531683297230E-003
-5.5813092E-001	5.321645055858387E-003
-5.5739433E-001	5.999409382369508E-003
-5.5614084E-001	6.675464106525334E-003
-5.5513519E-001	7.324672021454787E-003
-5.5446273E-001	7.946540740603192E-003
-5.5294341E-001	8.592171525513621E-003
-5.5291677E-001	9.259414650608963E-003
-5.5167103E-001	9.908358699047132E-003
-5.5009335E-001	1.050855344854743E-002
-5.4929423E-001	1.128688335738712E-002
-5.4837054E-001	1.191274050183389E-002
-5.4745781E-001	1.254460172115618E-002
-5.4665262E-001	1.316345031631905E-002
-5.4538977E-001	1.381407552441855E-002
-5.4450387E-001	1.442705513188375E-002
-5.4330862E-001	1.499421877303614E-002
-5.4212922E-001	1.564020519223516E-002
-5.4154056E-001	1.627348410181212E-002
-5.4053527E-001	1.686569259726201E-002
-5.3921497E-001	1.749615924814232E-002
-5.3831959E-001	1.814396657411838E-002
-5.3731453E-001	1.878084078284532E-002
-5.3644687E-001	1.936501801802495E-002
-5.3550059E-001	1.999413409632518E-002
-5.3438842E-001	2.059819770295662E-002
-5.3360629E-001	2.120102197440627E-002
-5.3227711E-001	2.178646001050727E-002
-5.3126740E-001	2.241179269643645E-002
-5.3023368E-001	2.301829122588037E-002
-5.2958989E-001	2.362024240816638E-002
-5.2844536E-001	2.424007417657770E-002
-5.2713090E-001	2.479770141050075E-002
-5.2635640E-001	2.541415698619365E-002
-5.2480614E-001	2.600027175871744E-002
-5.2455866E-001	2.658296820138473E-002
-5.2336103E-001	2.719223585100494E-002
-5.2242357E-001	2.778530023281456E-002
-5.2153051E-001	2.840860423425018E-002
-5.2024329E-001	2.901901295236140E-002
-5.1928389E-001	2.959521065992721E-002
-5.1816446E-001	3.018260732103417E-002
-5.1693773E-001	3.073933660379313E-002
-5.1622438E-001	3.135027802825258E-002
-5.1560873E-001	3.195787108658510E-002
-5.1442415E-001	3.254838935306359E-002
-5.1315576E-001	3.309034112047543E-002
-5.1223916E-001	3.369184163468020E-002
-5.1109880E-001	3.427609390382885E-002
-5.1039684E-001	3.491338304485442E-002
-5.0943017E-001	3.547749614894941E-002
-5.0854003E-001	3.601777638685350E-002
-5.0722277E-001	3.658753956012700E-002
-5.0638682E-001	3.716892383009619E-002
-5.0519735E-001	3.770321933777585E-002
-5.0363809E-001	3.831182891520224E-002
-5.0320131E-001	3.889444149418542E-002
-5.0241214E-001	3.948126709588834E-002
-5.0172776E-001	4.005717879799361E-002
-5.0041014E-001	4.065130963892516E-002
-4.9940032E-001	4.124873019841135E-002
-4.9815956E-001	4.178906666735804E-002
-4.9717093E-001	4.232561242336097E-002
-4.9609095E-001	4.292535710286494E-002
-4.9575514E-001	4.352302080089301E-002
-4.9426758E-001	4.410038330285415E-002
-4.9339226E-001	4.464593042912712E-002
-4.9248263E-001	4.521694788450589E-002
-4.9103698E-001	4.577004791562844E-002
-4.9020204E-001	4.635251178492439E-002
-4.8914260E-001	4.692023765517872E-002
-4.8831901E-001	4.745869376886364E-002
-4.8764357E-001	4.801813604879313E-002
-4.8644996E-001	4.857780094946773E-002
-4.8556328E-001	4.917876556067302E-002
-4.8445740E-001	4.970130439054343E-002
-4.8388648E-001	5.023521003751363E-002
-4.8236689E-001	5.080755536134041E-002
-4.8110646E-001	5.136826953471241E-002
-4.8064211E-001	5.189272913142895E-002
-4.7923803E-001	5.245208900628839E-002
-4.7850904E-001	5.302172146478287E-002
-4.7750598E-001	5.356779796312794E-002
-4.7639066E-001	5.415359743077475E-002
-4.7531486E-001	5.471490495113462E-002
-4.7467110E-001	5.524150320087329E-002
-4.7353393E-001	5.579868259977688E-002
-4.7218460E-001	5.636447032902048E-002
-4.7126478E-001	5.691930529213052E-002
-4.7045487E-001	5.743455953240700E-002
-4.6927920E-001	5.798302731511129E-002
-4.6818513E-001	5.856150582743225E-002
-4.6726596E-001	5.905774545303916E-002
-4.6628779E-001	5.965883865134280E-002
-4.6537128E-001	6.016243805384480E-002
-4.6449846E-001	6.076224089060628E-002
-4.6335095E-001	6.126160084925331E-002
-4.6231002E-001	6.181331855865846E-002
-4.6098581E-001	6.237259727509004E-002
-4.6004859E-001	6.294161588367486E-002
-4.5943111E-001	6.346942731869198E-002
-4.5817003E-001	6.399567453547531E-002
-4.5697594E-001	6.455062074517737E-002
-4.5682085E-001	6.503439127226107E-002
-4.5542821E-001	6.562782760246882E-002
-4.5419535E-001	6.612122231335560E-002
-4.5332816E-001	6.671491138533592E-002
-4.5277750E-001	6.717006674661774E-002
-4.5157513E-001	6.779328051575084E-002
-4.5042589E-001	6.830532039964760E-002
-4.4909582E-001	6.884157885279940E-002
-4.4810283E-001	6.932752835564360E-002
-4.4729647E-001	6.994410418832242E-002
-4.4646519E-001	7.042676210403473E-002
-4.4547457E-001	7.098541451031701E-002
-4.4436356E-001	7.151363844558539E-002
-4.4340312E-001	7.205309572250196E-002
-4.4225380E-001	7.260271001400209E-002
-4.4121829E-001	7.312409480819826E-002
-4.3992424E-001	7.366303982282130E-002
-4.3933743E-001	7.416415435627344E-002
-4.3830127E-001	7.464420567784003E-002
-4.3723488E-001	7.523212599982027E-002
-4.3618974E-001	7.577121232659947E-002
-4.3551689E-001	7.634320615411339E-002
-4.3434936E-001	7.687010030538155E-002
-4.3333831E-001	7.736578733701127E-002
-4.3227026E-001	7.792366434026643E-002
-4.3126652E-001	7.843283568164024E-002
-4.3066171E-001	7.895162849379533E-002
-4.2959210E-001	7.948499070307968E-002
-4.2835414E-001	8.000701653805591E-002
-4.2714843E-001	8.056046089889346E-002
-4.2669830E-001	8.107320852232736E-002
-4.2531866E-001	8.160348073440338E-002
-4.2406181E-001	8.210281086913129E-002
-4.2327902E-001	8.261802626118342E-002
-4.2226318E-001	8.316251850328915E-002
-4.2101201E-001	8.369571474139326E-002
-4.2030352E-001	8.420833041546538E-002
-4.1936710E-001	8.474658253586431E-002
-4.1862580E-001	8.523392878231340E-002
-4.1770983E-001	8.579756152229723E-002
-4.1638404E-001	8.633988842328488E-002
-4.1516939E-001	8.681788834467219E-002
-4.1405931E-001	8.737172029839058E-002
-4.1302016E-001	8.786565576748950E-002
-4.1227281E-001	8.838658596182025E-002
-4.1136765E-001	8.892360722325021E-002
-4.1011998E-001	8.943746238946915E-002
-4.0921903E-001	8.992953557107158E-002
-4.0820819E-001	9.045814376886052E-002
-4.0744436E-001	9.097121844792544E-002
-4.0666503E-001	9.148344119010421E-002
-4.0516251E-001	9.204027072438534E-002
-4.0409890E-001	9.252668047944723E-002
-4.0353718E-001	9.309672929036150E-002
-4.0242305E-001	9.350694949691141E-002
-4.0127039E-001	9.412776308858506E-002
-4.0039894E-001	9.459734325629032E-002
-3.9932474E-001	9.514592906149710E-002
-3.9829913E-001	9.562849662163231E-002
-3.9721996E-001	9.612596766090838E-002
-3.9649671E-001	9.669442755101221E-002
-3.9593199E-001	9.721284629604598E-002
-3.9467251E-001	9.773169041740726E-002
-3.9323631E-001	9.821249015146449E-002
-3.9260730E-001	9.872859750908863E-002
-3.9138508E-001	9.917072664824489E-002
-3.9040226E-001	9.973584324190510E-002
-3.8971943E-001	1.002468781511261E-001
-3.8857245E-001	1.007441019867326E-001
-3.8769233E-001	1.012177396634665E-001
-3.8636771E-001	1.017168932459689E-001
-3.8515866E-001	1.022852872912253E-001
-3.8433707E-001	1.028066741613056E-001
-3.8340268E-001	1.032695047268499E-001
-3.8250855E-001	1.037793672574613E-001
-3.8123962E-001	1.042385943647886E-001
-3.8045895E-001	1.048353918317515E-001
-3.7937477E-001	1.052563146308616E-001
-3.7859693E-001	1.058287613473280E-001
-3.7743145E-001	1.063208724402900E-001
-3.7631780E-001	1.067885044203303E-001
-3.7527290E-001	1.073058112351983E-001
-3.7396809E-001	1.077624310659857E-001
-3.7357035E-001	1.082226876686843E-001
-3.7230057E-001	1.088356933503773E-001
-3.7119254E-001	1.093897978443594E-001
-3.6996779E-001	1.099970764480531E-001
-3.6919418E-001	1.104185888208544E-001
-3.6789957E-001	1.109858402051034E-001
-3.6710003E-001	1.114642516433915E-001
-3.6599341E-001	1.119568166562961E-001
-3.6528444E-001	1.124592236139708E-001
-3.6386454E-001	1.128867792643574E-001
-3.6354607E-001	1.135396912556004E-001
-3.6198694E-001	1.139958641250376E-001
-3.6123139E-001	1.144258179847508E-001
-3.5967052E-001	1.149154054173440E-001
-3.5887098E-001	1.153880606612399E-001
-3.5819244E-001	1.159252968817680E-001
-3.5742748E-001	1.163304196843122E-001
-3.5633120E-001	1.169558932866765E-001
-3.5473779E-001	1.173628850734876E-001
-3.5355783E-001	1.178615057875438E-001
-3.5268027E-001	1.182726656638640E-001
-3.5263214E-001	1.188157682461535E-001
-3.5123628E-001	1.193372341631742E-001
-3.5025471E-001	1.197738981796297E-001
-3.4904611E-001	1.203126947705941E-001
-3.4726167E-001	1.207345689784873E-001
-3.4712714E-001	1.213049119585530E-001
-3.4656549E-001	1.217415818289198E-001
-3.4502584E-001	1.222234730850211E-001
-3.4424776E-001	1.227305393850545E-001
-3.4313196E-001	1.232049235453210E-001
-3.4190524E-001	1.237330107811701E-001
-3.4147564E-001	1.241851403863703E-001
-3.3956844E-001	1.247271561167307E-001
-3.3947650E-001	1.250987805580844E-001
-3.3815399E-001	1.256892413625288E-001
-3.3707678E-001	1.260561444451684E-001
-3.3604053E-001	1.265572164310089E-001
-3.3519480E-001	1.270984990901689E-001
-3.3437067E-001	1.275067884233536E-001
-3.3280358E-001	1.281059067737215E-001
-3.3186188E-001	1.285338648939844E-001
-3.3097219E-001	1.290071452795358E-001
-3.3026305E-001	1.294864868581503E-001
-3.2926583E-001	1.299500427967693E-001
-3.2798100E-001	1.303483438678090E-001
-3.2692629E-001	1.308770529421919E-001
-3.2561028E-001	1.314150645673546E-001
-3.2530120E-001	1.318102587851162E-001
-3.2394549E-001	1.323116530353818E-001
-3.2356408E-001	1.327493470852028E-001
-3.2199603E-001	1.332875312214632E-001
-3.2107946E-001	1.337098889742738E-001
-3.2007584E-001	1.341964800462683E-001
-3.1901500E-001	1.346386476560220E-001
-3.1826517E-001	1.350376635479436E-001
-3.1728446E-001	1.355182947935878E-001
-3.1614229E-001	1.359727218496009E-001
-3.1496251E-001	1.365232753256955E-001
-3.1487787E-001	1.369408068281635E-001
-3.1286520E-001	1.374644186511192E-001
-3.1251901E-001	1.379738896222862E-001
-3.1074053E-001	1.384056810999848E-001
-3.1015912E-001	1.388835777804533E-001
-3.0909723E-001	1.392993973913019E-001
-3.0793723E-001	1.397755333575041E-001
-3.0752197E-001	1.402049338686522E-001
-3.0647618E-001	1.407019668603664E-001
-3.0522105E-001	1.412464928618813E-001
-3.0412072E-001	1.415607197106710E-001
-3.0325583E-001	1.420417902301310E-001
-3.0191198E-001	1.425945286261376E-001
-3.0139506E-001	1.430476761285079E-001
-2.9993057E-001	1.435249926288384E-001
-2.9921505E-001	1.439030940851405E-001
-2.9829484E-001	1.443103871101306E-001
-2.9679888E-001	1.448866290930932E-001
-2.9602569E-001	1.453397165363040E-001
-2.9484731E-001	1.457046581846150E-001
-2.9354751E-001	1.462784413085248E-001
-2.9289111E-001	1.466340473853052E-001
-2.9167518E-001	1.471793948569236E-001
-2.9087314E-001	1.476267458859462E-001
-2.9016632E-001	1.479997049189279E-001
-2.8928599E-001	1.484689849980727E-001
-2.8857940E-001	1.488513001518230E-001
-2.8742692E-001	1.493187527586188E-001
-2.8571749E-001	1.498577942923101E-001
-2.8532302E-001	1.503030810056738E-001
-2.8392661E-001	1.507007006762755E-001
-2.8308693E-001	1.511525934529807E-001
-2.8247648E-001	1.515649156644940E-001
-2.8098717E-001	1.520216434642123E-001
-2.7993599E-001	1.524525846237030E-001
-2.7876997E-001	1.528649026941918E-001
-2.7784446E-001	1.533317814443120E-001
-2.7747256E-001	1.537397847072617E-001
-2.7614638E-001	1.542492959199959E-001
-2.7549690E-001	1.546566918206622E-001
-2.7393115E-001	1.550780237755840E-001
-2.7292523E-001	1.554945958605796E-001
-2.7279574E-001	1.560283474303887E-001
-2.7116460E-001	1.564313591871829E-001
-2.7005371E-001	1.567936515677029E-001
-2.6898032E-001	1.572924204795254E-001
-2.6801640E-001	1.577307161254191E-001
-2.6737919E-001	1.582238659159184E-001
-2.6604530E-001	1.585324298176358E-001
-2.6486078E-001	1.590130063187751E-001
-2.6374716E-001	1.594852216507273E-001
-2.6285562E-001	1.599526252555905E-001
-2.6202551E-001	1.603264844872883E-001
-2.6129985E-001	1.606887325618098E-001
-2.6027459E-001	1.612666356894703E-001
-2.5906080E-001	1.616664100093423E-001
-2.5829402E-001	1.620453713965100E-001
-2.5731817E-001	1.625118065728905E-001
-2.5635174E-001	1.630098397705568E-001
-2.5485057E-001	1.633661105285940E-001
-2.5382444E-001	1.636991184204810E-001
-2.5313950E-001	1.642291711091447E-001
-2.5182888E-001	1.645820638483406E-001
-2.5116184E-001	1.650597910845166E-001
-2.4987230E-001	1.654649532779496E-001
-2.4936296E-001	1.658972762727540E-001
-2.4799429E-001	1.663424969409356E-001
-2.4694948E-001	1.667624821190268E-001
-2.4654697E-001	1.670914146945711E-001
-2.4526276E-001	1.675335736772798E-001
-2.4430324E-001	1.679561100081606E-001
-2.4323778E-001	1.684618790599486E-001
-2.4234349E-001	1.687710723253319E-001
-2.4101302E-001	1.691840708831196E-001
-2.4048118E-001	1.697304106869358E-001
-2.3918849E-001	1.700502020927771E-001
-2.3791404E-001	1.704768288854974E-001
-2.3723543E-001	1.709204655382099E-001
-2.3588704E-001	1.711809530351669E-001
-2.3491350E-001	1.718064555725846E-001
-2.3390928E-001	1.721233325079088E-001
-2.3296213E-001	1.724695070359283E-001
-2.3221987E-001	1.729049235582352E-001
-2.3103771E-001	1.733659527230040E-001
-2.3017901E-001	1.738037941941908E-001
-2.2921340E-001	1.741004217829971E-001
-2.2796865E-001	1.746333590536207E-001
-2.2716412E-001	1.750087493087942E-001
-2.2599649E-001	1.754894249865572E-001
-2.2497551E-001	1.758189095805092E-001
-2.2394289E-001	1.762964114589338E-001
-2.2321701E-001	1.766170189819394E-001
-2.2202486E-001	1.770645517819267E-001
-2.2128069E-001	1.773582897149026E-001
-2.1976228E-001	1.777612567637805E-001
-2.1893646E-001	1.782254627289386E-001
-2.1782492E-001	1.785828545517121E-001
-2.1733683E-001	1.789833240866381E-001
-2.1609247E-001	1.793388697562501E-001
-2.1525520E-001	1.797928709398802E-001
-2.1421452E-001	1.802337080826635E-001
-2.1317559E-001	1.805735084855800E-001
-2.1202134E-001	1.810390436849381E-001
-2.1140976E-001	1.813862032119049E-001
-2.1028891E-001	1.818713900009277E-001
-2.0931140E-001	1.822261329464343E-001
-2.0798065E-001	1.825383983227251E-001
-2.0758872E-001	1.830289898509232E-001
-2.0611019E-001	1.833216914286222E-001
-2.0483686E-001	1.837460322493194E-001
-2.0350569E-001	1.841707793754281E-001
-2.0281076E-001	1.845403914512305E-001
-2.0214799E-001	1.849177578877312E-001
-2.0155752E-001	1.852955293013827E-001
-1.9986728E-001	1.857213133049225E-001
-1.9928817E-001	1.860670575619310E-001
-1.9779754E-001	1.864426033743833E-001
-1.9691946E-001	1.869465693486519E-001
-1.9570746E-001	1.872545424676337E-001
-1.9527897E-001	1.876024706806572E-001
-1.9449267E-001	1.879105224596622E-001
-1.9295637E-001	1.884115479576088E-001
-1.9240189E-001	1.888216335533386E-001
-1.9149566E-001	1.891283844668431E-001
-1.9008884E-001	1.895556235168532E-001
-1.8906617E-001	1.898950596374487E-001
-1.8811543E-001	1.902174852357188E-001
-1.8711565E-001	1.906890937782553E-001
-1.8592733E-001	1.910966438827693E-001
-1.8552084E-001	1.914669785284304E-001
-1.8389110E-001	1.918425923903238E-001
-1.8316942E-001	1.921649729777521E-001
-1.8191323E-001	1.924920087438762E-001
-1.8110695E-001	1.930218646820222E-001
-1.8001987E-001	1.933077804832974E-001
-1.7878732E-001	1.936954428890239E-001
-1.7829223E-001	1.940426693849820E-001
-1.7713535E-001	1.944350669978929E-001
-1.7608079E-001	1.948763665536202E-001
-1.7531776E-001	1.951564386900926E-001
-1.7448941E-001	1.955976949628091E-001
-1.7319542E-001	1.959498342195596E-001
-1.7232338E-001	1.963866134346635E-001
-1.7087816E-001	1.966946187373644E-001
-1.7036395E-001	1.971189159968927E-001
-1.6917641E-001	1.974198041981390E-001
-1.6791622E-001	1.978235360648894E-001
-1.6698305E-001	1.981021630819197E-001
-1.6619626E-001	1.984979907585336E-001
-1.6544387E-001	1.989301652130160E-001
-1.6381876E-001	1.992960697453874E-001
-1.6293687E-001	1.996096732383892E-001
-1.6233240E-001	2.000237048638098E-001
-1.6097879E-001	2.002552055788254E-001
-1.6041048E-001	2.007360436692467E-001
-1.5914539E-001	2.011225665747020E-001
-1.5836197E-001	2.014760469811812E-001
-1.5703006E-001	2.019058134130876E-001
-1.5588541E-001	2.021784238103375E-001
-1.5473159E-001	2.025276269363117E-001
-1.5438122E-001	2.028854928082893E-001
-1.5316382E-001	2.033224780871361E-001
-1.5172109E-001	2.036793602430045E-001
-1.5127696E-001	2.039836387460428E-001
-1.4998107E-001	2.044089335120374E-001
-1.4896449E-001	2.046779162937025E-001
-1.4798833E-001	2.050154573732517E-001
-1.4706196E-001	2.054333918624462E-001
-1.4636731E-001	2.057636537891585E-001
-1.4505589E-001	2.060899796930160E-001
-1.4453091E-001	2.065515868185219E-001
-1.4309244E-001	2.068132118977331E-001
-1.4249425E-001	2.071773661300540E-001
-1.4140543E-001	2.075517094400645E-001
-1.4023253E-001	2.077856581589135E-001
-1.3902318E-001	2.082227877237726E-001
-1.3824028E-001	2.086137589151988E-001
-1.3707946E-001	2.089197846750412E-001
-1.3618113E-001	2.092738010817102E-001
-1.3484603E-001	2.096015416643473E-001
-1.3469283E-001	2.099755462603978E-001
-1.3310166E-001	2.103505756499044E-001
-1.3241436E-001	2.107051213207431E-001
-1.3115008E-001	2.110458527933123E-001
-1.2998974E-001	2.113620516656836E-001
-1.2902394E-001	2.118149311454207E-001
-1.2799150E-001	2.121693695446956E-001
-1.2718800E-001	2.124427936994397E-001
-1.2617315E-001	2.128899596562555E-001
-1.2503107E-001	2.131294891997074E-001
-1.2422884E-001	2.134971241404022E-001
-1.2291318E-001	2.137555984987154E-001
-1.2237754E-001	2.142243615041175E-001
-1.2108230E-001	2.145819906899877E-001
-1.2025077E-001	2.148492454240716E-001
-1.1902425E-001	2.151618250226801E-001
-1.1828265E-001	2.155006995286659E-001
-1.1692439E-001	2.158570522787411E-001
-1.1632990E-001	2.161978154289383E-001
-1.1500867E-001	2.165458909132409E-001
-1.1410097E-001	2.168666033281212E-001
-1.1293008E-001	2.172682412480771E-001
-1.1239037E-001	2.175709453100962E-001
-1.1111189E-001	2.178683231964156E-001
-1.1029891E-001	2.182697071729456E-001
-1.0913719E-001	2.185524953184306E-001
-1.0785680E-001	2.189159650286583E-001
-1.0743225E-001	2.192226625431961E-001
-1.0579979E-001	2.195479931585753E-001
-1.0537112E-001	2.200177179988033E-001
-1.0426844E-001	2.201655568486007E-001
-1.0320101E-001	2.204893321419759E-001
-1.0211696E-001	2.210497471175730E-001
-1.0182410E-001	2.211410619870389E-001
-9.9937223E-002	2.216410242986893E-001
-9.9138871E-002	2.218738875405148E-001
-9.7944722E-002	2.222478326272075E-001
-9.7324461E-002	2.225697260281008E-001
-9.6348912E-002	2.229602233740033E-001
-9.5002085E-002	2.232701643542564E-001
-9.4196640E-002	2.235418550187252E-001
-9.3372099E-002	2.239383280250253E-001
-9.2133693E-002	2.241514474153531E-001
-9.1276452E-002	2.245878301921789E-001
-9.0173855E-002	2.247977400267571E-001
-8.9417830E-002	2.251157687149119E-001
-8.8072672E-002	2.254413473681529E-001
-8.6720206E-002	2.258278055599448E-001
-8.5980311E-002	2.261395551333276E-001
-8.5402869E-002	2.264804737471966E-001
-8.4015153E-002	2.267427646244577E-001
-8.2893632E-002	2.270287775813991E-001
-8.2199156E-002	2.272990116043179E-001
-8.1275538E-002	2.276778753019038E-001
-8.0322899E-002	2.280472904930848E-001
-7.8982860E-002	2.282509034223579E-001
-7.8625627E-002	2.285992805673570E-001
-7.7105023E-002	2.289617000013804E-001
-7.6187231E-002	2.291801809160803E-001
-7.4919343E-002	2.296487776976495E-001
-7.4477769E-002	2.299290675422991E-001
-7.3728040E-002	2.302335260642905E-001
-7.2192661E-002	2.305249982616961E-001
-7.1070492E-002	2.309243604308158E-001
-7.0866227E-002	2.311123228735394E-001
-6.9206543E-002	2.315444346793275E-001
-6.8097204E-002	2.317269075188024E-001
-6.7465395E-002	2.320562457941749E-001
-6.6230230E-002	2.323348945063128E-001
-6.4797051E-002	2.325383982862594E-001
-6.4189732E-002	2.329450356946499E-001
-6.3501038E-002	2.332103450868472E-001
-6.2617019E-002	2.335824369694361E-001
-6.1491251E-002	2.336993678300486E-001
-6.0374580E-002	2.340880953982014E-001
-5.9255436E-002	2.344466044946958E-001
-5.8281764E-002	2.347067959123734E-001
-5.7172727E-002	2.350717393077417E-001
-5.6079883E-002	2.353878667302149E-001
-5.5609807E-002	2.356099092781001E-001
-5.4303743E-002	2.359991865697486E-001
-5.3250100E-002	2.363494523214533E-001
-5.2117974E-002	2.366665843257980E-001
-5.1773485E-002	2.369738167703712E-001
-5.0175954E-002	2.372861140994007E-001
-4.9229629E-002	2.375459113696055E-001
-4.8044287E-002	2.378169048784504E-001
-4.7215503E-002	2.381805269806474E-001
-4.6423405E-002	2.384604156115122E-001
-4.5722339E-002	2.387613641719022E-001
-4.4092566E-002	2.391429128194300E-001
-4.3210838E-002	2.393533935755539E-001
-4.2148203E-002	2.396728250163576E-001
-4.1154467E-002	2.399318919140647E-001
-4.0207662E-002	2.402296468477556E-001
-3.8979232E-002	2.405275553119968E-001
-3.8374431E-002	2.407558630820166E-001
-3.6910564E-002	2.410857269747382E-001
-3.5768047E-002	2.414180088650291E-001
-3.5311654E-002	2.417387455245019E-001
-3.3911083E-002	2.420798903331152E-001
-3.3126425E-002	2.422823864897641E-001
-3.2921184E-002	2.425089632402503E-001
-3.0883601E-002	2.428394182826636E-001
-3.0333977E-002	2.432216834276916E-001
-2.8866246E-002	2.434136381834002E-001
-2.8456016E-002	2.436961298808455E-001
-2.7538840E-002	2.439698960163681E-001
-2.6499562E-002	2.443153724350315E-001
-2.5217464E-002	2.444975020501898E-001
-2.4241280E-002	2.448870042763849E-001
-2.3534657E-002	2.450258545922461E-001
-2.2331472E-002	2.454847407147841E-001
-2.1170374E-002	2.457063513065472E-001
-1.9849157E-002	2.460912554697305E-001
-1.8944858E-002	2.463499571852104E-001
-1.8058484E-002	2.465953545943148E-001
-1.7217504E-002	2.468446950531683E-001
-1.6282447E-002	2.471983792881174E-001
-1.5594092E-002	2.475362862752755E-001
-1.4134021E-002	2.477259402404774E-001
-1.2903904E-002	2.479966030449834E-001
-1.2294662E-002	2.482765692941569E-001
-1.1468852E-002	2.486996329217046E-001
-1.0255295E-002	2.490052440510381E-001
-9.1738449E-003	2.493194484117418E-001
-8.1093889E-003	2.494987019993098E-001
-7.0833275E-003	2.497805753875917E-001
-6.0146311E-003	2.501162337139253E-001
-5.3572478E-003	2.503263002123544E-001
-4.5618508E-003	2.507084853672890E-001
-3.4192512E-003	2.509701169889276E-001
-2.4117900E-003	2.511611913796881E-001
-1.4252535E-003	2.514908847019632E-001
-2.7764397E-004	2.517763681157870E-001
5.4352230E-004	2.521280953781152E-001
2.0008157E-003	2.523926848338709E-001
2.7697773E-003	2.526234120682442E-001
3.7154132E-003	2.528311987665264E-001
4.6129511E-003	2.531342566427264E-001
5.3046988E-003	2.533610832567024E-001
6.2977253E-003	2.537065437266370E-001
6.9257785E-003	2.543980560519481E-001