EC-Lab ASCII FILE
Nb header lines : 63                          

Linear Sweep Voltammetry

Run on channel : 6 (SN 13765)
User : 
Electrode connection : standard
Potential control : Ewe
Ewe ctrl range : min = -2.50 V, max = 2.50 V
Ewe,I filtering : <None>
Safety Limits :
	Do not start on E overload
Channel : Floating
Acquisition started on : 07/17/2026 15:04:11.548
Technique started on : 07/17/2026 15:04:12.545
Loaded Setting File :  C:\Users\EEM-620\Desktop\Wade\abao\20260629\N719_0629-0-1_C06.mpr
Saved on :
	File : N719_0717-b-1_C06.mpr
	Directory : C:\Users\EEM-620\Desktop\Wade\abao\20260717\
	Host : 192.109.209.200
Device : VSP-300 (SN 0025)
Address : 192.109.209.129
EC-LAB for windows v11.62 (software)
Internet server v27.00 (firmware)
Command interpretor v12.02 (firmware)
Electrode material : Au/Pd
Initial state : 
Electrolyte : NaCl (0.2M)
Comments : Fe(CN)63-/Fe(CN)64- 5.10-3 M
Cable : ULC
Reference electrode : SCE Saturated Calomel Electrode (0.241 V)
Electrode surface area : 0.001 cm2
Characteristic mass : 0.001 g
Equivalent Weight : 0.000 g/eq.
Density : 0.000 g/cm3
Volume (V) : 0.001 cm3
Cycle Definition : Charge/Discharge alternance
tR (h:m:s)          0:00:5.0000         
dER/dt (mV/h)       0.0                 
dER (mV)            0                   
dtR (s)             0.0500              
dE/dt               10.000              
dE/dt unit          mV/s                
Ei (V)              -0.800              
vs.                 Ref                 
EL (V)              0.010               
vs.                 Ref                 
record              <I>                 
dI                  0.000               
unit dI             uA                  
tI (s)              0.0000              
step percent        50                  
N                   10                  
E range min (V)     -2.500              
E range max (V)     2.500               
I Range             Auto                
I Range min         Unset               
I Range max         Unset               
I Range init        Unset               
Bandwidth           8                   

Ewe/V	<I>/mA	
-8.3707732E-001	0.000000000000000E+000
-8.3658475E-001	0.000000000000000E+000
-8.3722621E-001	0.000000000000000E+000
-8.3734840E-001	0.000000000000000E+000
-8.3765388E-001	0.000000000000000E+000
-8.3835644E-001	0.000000000000000E+000
-8.3770353E-001	0.000000000000000E+000
-8.3684438E-001	0.000000000000000E+000
-8.3651984E-001	0.000000000000000E+000
-8.3695126E-001	0.000000000000000E+000
-8.3732933E-001	0.000000000000000E+000
-8.3716518E-001	0.000000000000000E+000
-8.3767682E-001	0.000000000000000E+000
-8.3782572E-001	0.000000000000000E+000
-8.3659238E-001	0.000000000000000E+000
-8.3769208E-001	0.000000000000000E+000
-8.3757752E-001	0.000000000000000E+000
-8.3728731E-001	0.000000000000000E+000
-8.3709645E-001	0.000000000000000E+000
-8.3754313E-001	0.000000000000000E+000
-8.3695132E-001	0.000000000000000E+000
-8.3746296E-001	0.000000000000000E+000
-8.3734840E-001	0.000000000000000E+000
-8.3693606E-001	0.000000000000000E+000
-8.3694750E-001	0.000000000000000E+000
-8.3737516E-001	0.000000000000000E+000
-8.3702767E-001	0.000000000000000E+000
-8.3681768E-001	0.000000000000000E+000
-8.3728731E-001	0.000000000000000E+000
-8.3715749E-001	0.000000000000000E+000
-8.3723384E-001	0.000000000000000E+000
-8.3582878E-001	0.000000000000000E+000
-8.3680999E-001	0.000000000000000E+000
-8.3726442E-001	0.000000000000000E+000
-8.3695132E-001	0.000000000000000E+000
-8.3786774E-001	0.000000000000000E+000
-8.3711934E-001	0.000000000000000E+000
-8.3721477E-001	0.000000000000000E+000
-8.3759278E-001	0.000000000000000E+000
-8.3695894E-001	0.000000000000000E+000
-8.3716130E-001	0.000000000000000E+000
-8.3719569E-001	0.000000000000000E+000
-8.3737898E-001	0.000000000000000E+000
-8.3698183E-001	0.000000000000000E+000
-8.3734840E-001	0.000000000000000E+000
-8.3689404E-001	0.000000000000000E+000
-8.3750492E-001	0.000000000000000E+000
-8.3644348E-001	0.000000000000000E+000
-8.3829153E-001	0.000000000000000E+000
-8.3652747E-001	0.000000000000000E+000
-8.3709639E-001	0.000000000000000E+000
-8.3669549E-001	0.000000000000000E+000
-8.3691317E-001	0.000000000000000E+000
-8.3698189E-001	0.000000000000000E+000
-8.3666110E-001	0.000000000000000E+000
-8.3754700E-001	0.000000000000000E+000
-8.3666873E-001	0.000000000000000E+000
-8.3799750E-001	0.000000000000000E+000
-8.3737892E-001	0.000000000000000E+000
-8.3674890E-001	0.000000000000000E+000
-8.3673745E-001	0.000000000000000E+000
-8.4209073E-001	0.000000000000000E+000
-8.4250695E-001	0.000000000000000E+000
-7.8928757E-001	1.096534176005255E-001
-7.8904229E-001	1.099571236581709E-001
-7.8834254E-001	1.113060050540499E-001
-7.8705317E-001	1.128945615750598E-001
-7.8652287E-001	1.145713289992680E-001
-7.8493321E-001	1.163997807608991E-001
-7.8391492E-001	1.182474477683988E-001
-7.8329939E-001	1.200898678593889E-001
-7.8192014E-001	1.220099866666177E-001
-7.8122652E-001	1.239794647270122E-001
-7.7959222E-001	1.259318486338969E-001
-7.7904677E-001	1.279113426183658E-001
-7.7814060E-001	1.299317798310298E-001
-7.7729398E-001	1.318763045042199E-001
-7.7612668E-001	1.339065146580102E-001
-7.7494580E-001	1.358307048816374E-001
-7.7441823E-001	1.379230189206148E-001
-7.7295548E-001	1.399603963634692E-001
-7.7250117E-001	1.420074873258950E-001
-7.7148873E-001	1.440941946477521E-001
-7.7026820E-001	1.461389461682061E-001
-7.6933163E-001	1.482334899267667E-001
-7.6838338E-001	1.502681079803517E-001
-7.6712632E-001	1.523787933697713E-001
-7.6578045E-001	1.544572215837743E-001
-7.6527125E-001	1.566134858014129E-001
-7.6400298E-001	1.586499498945617E-001
-7.6324356E-001	1.607180250360188E-001
-7.6187867E-001	1.628898674982493E-001
-7.6111001E-001	1.649782246806555E-001
-7.6021457E-001	1.670847417510772E-001
-7.5927263E-001	1.692748360994108E-001
-7.5800574E-001	1.715157796214852E-001
-7.5720131E-001	1.736173056135024E-001
-7.5603831E-001	1.757759356993964E-001
-7.5523299E-001	1.779361417930989E-001
-7.5423473E-001	1.802195366816930E-001
-7.5321913E-001	1.823468289361889E-001
-7.5242734E-001	1.845752660840474E-001
-7.5115871E-001	1.867296210833191E-001
-7.5016969E-001	1.890061081352614E-001
-7.4914396E-001	1.912012687642822E-001
-7.4822420E-001	1.933789457555273E-001
-7.4706274E-001	1.957526845271111E-001
-7.4584150E-001	1.980435113526056E-001
-7.4501711E-001	2.002856341431394E-001
-7.4394608E-001	2.025758213260123E-001
-7.4319398E-001	2.048012464548711E-001
-7.4223483E-001	2.071531479589641E-001
-7.4091053E-001	2.094878032458594E-001
-7.3997253E-001	2.117458271138645E-001
-7.3903209E-001	2.141445192437903E-001
-7.3799574E-001	2.163433597112697E-001
-7.3699057E-001	2.187095153994743E-001
-7.3614877E-001	2.211232826941547E-001
-7.3560041E-001	2.234544594323742E-001
-7.3371148E-001	2.257572116842150E-001
-7.3331577E-001	2.282015777158515E-001
-7.3248231E-001	2.305732698145291E-001
-7.3089951E-001	2.329947877833889E-001
-7.3024315E-001	2.353169652115974E-001
-7.2886306E-001	2.377561688837084E-001
-7.2786611E-001	2.401872508560059E-001
-7.2686017E-001	2.425993441569592E-001
-7.2631484E-001	2.451007796658409E-001
-7.2510964E-001	2.475531560094386E-001
-7.2386634E-001	2.499793344694721E-001
-7.2298282E-001	2.524984700899324E-001
-7.2230405E-001	2.549342756263080E-001
-7.2105867E-001	2.574144653217108E-001
-7.1977234E-001	2.599162727452253E-001
-7.1899784E-001	2.624264118020179E-001
-7.1842188E-001	2.649050914785913E-001
-7.1743894E-001	2.674106751599243E-001
-7.1607918E-001	2.699511913858632E-001
-7.1502572E-001	2.724731546930148E-001
-7.1406806E-001	2.749082743658627E-001
-7.1315879E-001	2.774805662532644E-001
-7.1250272E-001	2.800145788333896E-001
-7.1120048E-001	2.825753465294838E-001
-7.1017921E-001	2.851602388890790E-001
-7.0899355E-001	2.877615687946687E-001
-7.0848399E-001	2.903378612051415E-001
-7.0702285E-001	2.929265887855941E-001
-7.0616740E-001	2.954659364399816E-001
-7.0523053E-001	2.980775925917198E-001
-7.0370829E-001	3.006606457617003E-001
-7.0311224E-001	3.033187118558238E-001
-7.0199794E-001	3.059624468700750E-001
-7.0104098E-001	3.086405316781660E-001
-6.9986588E-001	3.112594107789812E-001
-6.9909978E-001	3.138224284199103E-001
-6.9793963E-001	3.164546237088812E-001
-6.9707698E-001	3.191984945356294E-001
-6.9616383E-001	3.218148135476646E-001
-6.9535601E-001	3.244364218755882E-001
-6.9404674E-001	3.270458603553752E-001
-6.9306266E-001	3.297246752858709E-001
-6.9203985E-001	3.325053405187757E-001
-6.9109327E-001	3.351493856559209E-001
-6.9025010E-001	3.377705493045073E-001
-6.8894875E-001	3.405064360830901E-001
-6.8821341E-001	3.432150412764816E-001
-6.8691510E-001	3.457403462762553E-001
-6.8589443E-001	3.485029325303114E-001
-6.8493944E-001	3.511005464458359E-001
-6.8417829E-001	3.538306568377410E-001
-6.8311793E-001	3.565382465237272E-001
-6.8221378E-001	3.592503840379706E-001
-6.8110782E-001	3.619411985400500E-001
-6.8002725E-001	3.646219090593084E-001
-6.7911726E-001	3.674074506594067E-001
-6.7810416E-001	3.700376655049693E-001
-6.7770696E-001	3.728683477060653E-001
-6.7618138E-001	3.755163650062894E-001
-6.7485338E-001	3.782702997122896E-001
-6.7389697E-001	3.809832959194428E-001
-6.7329580E-001	3.836629805753766E-001
-6.7191780E-001	3.864129831048624E-001
-6.7104465E-001	3.890831622260595E-001
-6.7010444E-001	3.918598941889395E-001
-6.6923040E-001	3.946250156258015E-001
-6.6805196E-001	3.972400539313208E-001
-6.6720939E-001	4.000233723002979E-001
-6.6608012E-001	4.028184573959432E-001
-6.6513503E-001	4.055511684467390E-001
-6.6405725E-001	4.081353342710630E-001
-6.6295773E-001	4.108148793241497E-001
-6.6184109E-001	4.135605062323586E-001
-6.6123682E-001	4.162968213065588E-001
-6.6025037E-001	4.189650717156902E-001
-6.5918875E-001	4.216687193524624E-001
-6.5798974E-001	4.245270365780165E-001
-6.5717775E-001	4.272279062618809E-001
-6.5618646E-001	4.299800061507708E-001
-6.5485007E-001	4.326120954420829E-001
-6.5422809E-001	4.353402043796244E-001
-6.5307921E-001	4.379481892984822E-001
-6.5203810E-001	4.406649232324633E-001
-6.5106887E-001	4.434105555906340E-001
-6.5043336E-001	4.461211153393823E-001
-6.4915234E-001	4.487146560654605E-001
-6.4790535E-001	4.515669085085381E-001
-6.4756030E-001	4.541430090000675E-001
-6.4613372E-001	4.569337523231871E-001
-6.4510900E-001	4.596559740940855E-001
-6.4417982E-001	4.622850062118635E-001
-6.4262748E-001	4.648702457133278E-001
-6.4224076E-001	4.676340208035800E-001
-6.4098006E-001	4.702817167120954E-001
-6.4016324E-001	4.728866986654419E-001
-6.3911015E-001	4.755317361515612E-001
-6.3796389E-001	4.782256634423003E-001
-6.3721752E-001	4.809198200840648E-001
-6.3659257E-001	4.837336537894829E-001
-6.3496137E-001	4.862598617457667E-001
-6.3443458E-001	4.888865742284114E-001
-6.3307983E-001	4.915600352127254E-001
-6.3188386E-001	4.941870601226894E-001
-6.3082230E-001	4.966853264252561E-001
-6.2990028E-001	4.992688968087773E-001
-6.2924165E-001	5.019885300210252E-001
-6.2786222E-001	5.046524591240118E-001
-6.2709957E-001	5.072847432974310E-001
-6.2618250E-001	5.098154337869740E-001
-6.2516695E-001	5.123393370265994E-001
-6.2411875E-001	5.149826228756584E-001
-6.2306941E-001	5.174618531018513E-001
-6.2224525E-001	5.200573170974543E-001
-6.2118632E-001	5.225650132116351E-001
-6.1986297E-001	5.252476522697780E-001
-6.1922711E-001	5.276278204940006E-001
-6.1811870E-001	5.302604964623878E-001
-6.1693245E-001	5.329534917449870E-001
-6.1602837E-001	5.353891937821018E-001
-6.1502951E-001	5.378633785165019E-001
-6.1428457E-001	5.403426795437234E-001
-6.1317724E-001	5.427346669689364E-001
-6.1210936E-001	5.453810520056219E-001
-6.1144108E-001	5.476680483144420E-001
-6.1012781E-001	5.501031234032578E-001
-6.0904831E-001	5.525816037791835E-001
-6.0776645E-001	5.551197923443922E-001
-6.0692751E-001	5.575903799660766E-001
-6.0611737E-001	5.599751675411913E-001
-6.0496700E-001	5.623821618932250E-001
-6.0405719E-001	5.646729505172470E-001
-6.0289437E-001	5.671769374343214E-001
-6.0237950E-001	5.695260919768490E-001
-6.0124415E-001	5.720637465516727E-001
-6.0005367E-001	5.743277608430351E-001
-5.9914291E-001	5.767137923588361E-001
-5.9810108E-001	5.789760476047245E-001
-5.9733307E-001	5.813758179329227E-001
-5.9565568E-001	5.837601866849020E-001
-5.9515959E-001	5.857761912542081E-001
-5.9398884E-001	5.881049535754643E-001
-5.9351283E-001	5.903359475649044E-001
-5.9171063E-001	5.926357050166287E-001
-5.9106785E-001	5.948393458707484E-001
-5.9007967E-001	5.972229246464049E-001
-5.8901745E-001	5.995961849006761E-001
-5.8843040E-001	6.016307432480437E-001
-5.8702892E-001	6.038491543796329E-001
-5.8605564E-001	6.059914026963131E-001
-5.8529240E-001	6.082205197739385E-001
-5.8437157E-001	6.104813647904876E-001
-5.8296198E-001	6.125800558778307E-001
-5.8215696E-001	6.146706301305045E-001
-5.8125776E-001	6.168988783140108E-001
-5.8034587E-001	6.190506426134590E-001
-5.7919925E-001	6.211692194833809E-001
-5.7811570E-001	6.231030329011249E-001
-5.7697636E-001	6.253757929360431E-001
-5.7617879E-001	6.272256432997998E-001
-5.7534420E-001	6.293829108252711E-001
-5.7431144E-001	6.314762148454243E-001
-5.7285410E-001	6.333924533316394E-001
-5.7206923E-001	6.355926530458929E-001
-5.7107627E-001	6.375403822986048E-001
-5.7002372E-001	6.394436344271570E-001
-5.6876618E-001	6.415129361191276E-001
-5.6776947E-001	6.436372955364202E-001
-5.6739098E-001	6.453223273982709E-001
-5.6578732E-001	6.473184653592323E-001
-5.6516433E-001	6.494152447967636E-001
-5.6422949E-001	6.511340864371364E-001
-5.6310964E-001	6.530064278868619E-001
-5.6219828E-001	6.551396894372190E-001
-5.6147528E-001	6.568502602476869E-001
-5.5986112E-001	6.587610853215059E-001
-5.5940717E-001	6.602634157709506E-001
-5.5784380E-001	6.621415502903165E-001
-5.5689043E-001	6.640216726809738E-001
-5.5607384E-001	6.659824889963564E-001
-5.5494297E-001	6.678435081547081E-001
-5.5404735E-001	6.696472130715843E-001
-5.5318087E-001	6.714111361843198E-001
-5.5207014E-001	6.732633783033606E-001
-5.5157989E-001	6.748725798119035E-001
-5.4985642E-001	6.767378931919259E-001
-5.4912275E-001	6.783877025461855E-001
-5.4763788E-001	6.801796690043487E-001
-5.4701173E-001	6.817556656027706E-001
-5.4596955E-001	6.835785658547149E-001
-5.4518479E-001	6.852309671403092E-001
-5.4431474E-001	6.868245532787172E-001
-5.4332936E-001	6.886521710289859E-001
-5.4219949E-001	6.899413335943940E-001
-5.4125524E-001	6.917418750623892E-001
-5.4012036E-001	6.933371484693533E-001
-5.3894705E-001	6.951129492410142E-001
-5.3814119E-001	6.967993016458216E-001
-5.3707904E-001	6.981898172310110E-001
-5.3609568E-001	6.998142710590542E-001
-5.3492469E-001	7.013637670488251E-001
-5.3446454E-001	7.026893842827402E-001
-5.3304636E-001	7.043057517373246E-001
-5.3197926E-001	7.058922759498696E-001
-5.3119135E-001	7.072226451245420E-001
-5.2998275E-001	7.087682362783845E-001
-5.2940941E-001	7.101892902757281E-001
-5.2853996E-001	7.116567065302544E-001
-5.2737212E-001	7.132165649284907E-001
-5.2618611E-001	7.145771420802252E-001
-5.2517086E-001	7.160776818599155E-001
-5.2418017E-001	7.174555825552442E-001
-5.2300358E-001	7.186586770608479E-001
-5.2219856E-001	7.203300258599352E-001
-5.2129149E-001	7.220702450722420E-001
-5.2015084E-001	7.231343363722174E-001
-5.1908338E-001	7.244937549503945E-001
-5.1849455E-001	7.254588230754493E-001
-5.1690817E-001	7.269476715891727E-001
-5.1611346E-001	7.280209750902884E-001
-5.1521337E-001	7.295192169646452E-001
-5.1421732E-001	7.307769641119521E-001
-5.1319367E-001	7.319738368193320E-001
-5.1219243E-001	7.332863960829066E-001
-5.1130271E-001	7.346025113606679E-001
-5.1008201E-001	7.359519745740624E-001
-5.0897175E-001	7.372267637401801E-001
-5.0823677E-001	7.383153156563846E-001
-5.0736445E-001	7.396430048953615E-001
-5.0631493E-001	7.407229412870731E-001
-5.0536513E-001	7.419266378575955E-001
-5.0430810E-001	7.431964941874680E-001
-5.0305384E-001	7.442497242276822E-001
-5.0186318E-001	7.453398961849764E-001
-5.0130039E-001	7.465581008819520E-001
-5.0019646E-001	7.477534138197015E-001
-4.9918738E-001	7.489449334227394E-001
-4.9824765E-001	7.498754510587027E-001
-4.9712139E-001	7.513568140979991E-001
-4.9578246E-001	7.523775097258693E-001
-4.9551368E-001	7.533767034334211E-001
-4.9432969E-001	7.544374821002293E-001
-4.9334341E-001	7.556047906616206E-001
-4.9198228E-001	7.566176425614035E-001
-4.9122405E-001	7.577010054417208E-001
-4.9027970E-001	7.584612673769406E-001
-4.8914963E-001	7.596703193867034E-001
-4.8814654E-001	7.606285113013431E-001
-4.8678148E-001	7.615494958504492E-001
-4.8602092E-001	7.631634341892610E-001
-4.8516956E-001	7.639252710397582E-001
-4.8433903E-001	7.648278527927643E-001
-4.8274815E-001	7.661392986275413E-001
-4.8197511E-001	7.670792285352936E-001
-4.8101565E-001	7.680613482715914E-001
-4.8051316E-001	7.691451685830089E-001
-4.7898367E-001	7.699959624420707E-001
-4.7820053E-001	7.711263517107998E-001
-4.7714075E-001	7.721566717243871E-001
-4.7600204E-001	7.730988704909887E-001
-4.7538254E-001	7.741502998630319E-001
-4.7403008E-001	7.749990816055625E-001
-4.7323227E-001	7.760716516662516E-001
-4.7204915E-001	7.771532128881766E-001
-4.7155523E-001	7.777750225116797E-001
-4.7006541E-001	7.787133566345323E-001
-4.6901059E-001	7.797569170429952E-001
-4.6819106E-001	7.808938436210191E-001
-4.6714017E-001	7.818997706528066E-001
-4.6625075E-001	7.825900066086060E-001
-4.6527389E-001	7.835179451439096E-001
-4.6412179E-001	7.844862143950184E-001
-4.6298268E-001	7.852238154521682E-001
-4.6217871E-001	7.861786294314648E-001
-4.6148372E-001	7.870793069824416E-001
-4.6030590E-001	7.881138599305189E-001
-4.5869160E-001	7.889642874123872E-001
-4.5826665E-001	7.898714904091122E-001
-4.5709258E-001	7.904654567440357E-001
-4.5634800E-001	7.915333280408881E-001
-4.5508116E-001	7.924115924296729E-001
-4.5417285E-001	7.933461552968710E-001
-4.5320246E-001	7.942253703023727E-001
-4.5204049E-001	7.951086988603606E-001
-4.5075107E-001	7.955671489514691E-001
-4.5017090E-001	7.966859517906695E-001
-4.4892648E-001	7.975851311175923E-001
-4.4816521E-001	7.984782834019946E-001
-4.4725469E-001	7.991478041887952E-001
-4.4598836E-001	8.002496680451792E-001
-4.4518310E-001	8.008446878305193E-001
-4.4421020E-001	8.018747418868788E-001
-4.4326293E-001	8.026400342307722E-001
-4.4238150E-001	8.034193306057524E-001
-4.4130203E-001	8.041547423651503E-001
-4.4000313E-001	8.051026144789333E-001
-4.3886557E-001	8.056432471742960E-001
-4.3832672E-001	8.064972478206514E-001
-4.3700263E-001	8.072913882357106E-001
-4.3640938E-001	8.081367722580879E-001
-4.3532425E-001	8.088249951876954E-001
-4.3418238E-001	8.095531140764543E-001
-4.3314135E-001	8.105889472144021E-001
-4.3235615E-001	8.112052259621798E-001
-4.3124065E-001	8.120649786735044E-001
-4.3005231E-001	8.127419038587824E-001
-4.2902747E-001	8.136495110337343E-001
-4.2814469E-001	8.144531289010870E-001
-4.2724624E-001	8.151614296215541E-001
-4.2656064E-001	8.159069169174717E-001
-4.2515439E-001	8.166222124747122E-001
-4.2432392E-001	8.171681360238097E-001
-4.2291719E-001	8.179927927752360E-001
-4.2212215E-001	8.188158354847399E-001
-4.2101690E-001	8.194522592756499E-001
-4.2006278E-001	8.202982442798401E-001
-4.1911572E-001	8.212762142334853E-001
-4.1837063E-001	8.218934887813205E-001
-4.1762900E-001	8.225624924180686E-001
-4.1592541E-001	8.230992781895168E-001
-4.1496977E-001	8.240005556080092E-001
-4.1407102E-001	8.249121514449556E-001
-4.1333172E-001	8.257379077926892E-001
-4.1215149E-001	8.260701349763986E-001
-4.1081727E-001	8.269935577853165E-001
-4.1032401E-001	8.275754919482576E-001
-4.0929028E-001	8.282942719481632E-001
-4.0823790E-001	8.291496263966014E-001
-4.0692529E-001	8.298526570476863E-001
-4.0652710E-001	8.304180720889995E-001
-4.0543231E-001	8.312158419020648E-001
-4.0442732E-001	8.318426842214883E-001
-4.0327841E-001	8.324788394901503E-001
-4.0213862E-001	8.332434879756874E-001
-4.0132213E-001	8.338296263030287E-001
-4.0020639E-001	8.346094921760816E-001
-3.9910477E-001	8.353350408099267E-001
-3.9787826E-001	8.363937531356456E-001
-3.9735240E-001	8.368848635873460E-001
-3.9639422E-001	8.374793474321010E-001
-3.9507899E-001	8.381671112168725E-001
-3.9421529E-001	8.387757906264763E-001
-3.9322653E-001	8.395411330792624E-001
-3.9224222E-001	8.401243871560773E-001
-3.9091834E-001	8.411050754461051E-001
-3.8979045E-001	8.415640417348449E-001
-3.8910770E-001	8.422559090656065E-001
-3.8824764E-001	8.428691232370067E-001
-3.8689706E-001	8.434757649622600E-001
-3.8636872E-001	8.441099554997962E-001
-3.8551146E-001	8.449208555674090E-001
-3.8418311E-001	8.453624042923806E-001
-3.8315982E-001	8.460198743421889E-001
-3.8201302E-001	8.467950524279360E-001
-3.8102281E-001	8.475628133725230E-001
-3.8011092E-001	8.481193316585083E-001
-3.7927553E-001	8.487915173172915E-001
-3.7818095E-001	8.493479960770527E-001
-3.7735239E-001	8.501493945910911E-001
-3.7636727E-001	8.507409360673677E-001
-3.7523541E-001	8.515715394913954E-001
-3.7397468E-001	8.520231498060369E-001
-3.7298378E-001	8.525286246505051E-001
-3.7217623E-001	8.533418845698058E-001
-3.7105668E-001	8.537979433657945E-001
-3.6989334E-001	8.544526425776624E-001
-3.6923197E-001	8.552092264948463E-001
-3.6850625E-001	8.557196576838173E-001
-3.6711720E-001	8.564275450728553E-001
-3.6616358E-001	8.567772156123592E-001
-3.6565167E-001	8.575565183052367E-001
-3.6428049E-001	8.579835498498554E-001
-3.6305922E-001	8.587513458637632E-001
-3.6220691E-001	8.596775295833758E-001
-3.6139682E-001	8.600938033880929E-001
-3.6005613E-001	8.608644813023236E-001
-3.5879186E-001	8.609805071243515E-001
-3.5846981E-001	8.617960719620710E-001
-3.5724929E-001	8.624397772881700E-001
-3.5614195E-001	8.632012161391742E-001
-3.5522333E-001	8.636510356195819E-001
-3.5436520E-001	8.643720828824595E-001
-3.5307696E-001	8.648910961217364E-001
-3.5246637E-001	8.652634730002289E-001
-3.5132474E-001	8.657917123701857E-001
-3.4999835E-001	8.663713520875653E-001
-3.4879413E-001	8.671102132798190E-001
-3.4810829E-001	8.677516946638093E-001
-3.4719238E-001	8.681808499543209E-001
-3.4598681E-001	8.688040879313625E-001
-3.4499785E-001	8.695565893970194E-001
-3.4434628E-001	8.700600511573491E-001
-3.4313244E-001	8.705703315359585E-001
-3.4210911E-001	8.713796602355099E-001
-3.4103802E-001	8.718115217822113E-001
-3.4035671E-001	8.724800254459719E-001
-3.3921695E-001	8.729332075626761E-001
-3.3841452E-001	8.736915547343131E-001
-3.3760351E-001	8.741430447057468E-001
-3.3618784E-001	8.748382514315054E-001
-3.3520094E-001	8.754087366439656E-001
-3.3409938E-001	8.756013977582819E-001
-3.3306473E-001	8.764954755768541E-001
-3.3212531E-001	8.770099599604251E-001
-3.3122572E-001	8.773665116341025E-001
-3.2995206E-001	8.780739060781215E-001
-3.2919011E-001	8.787166948119784E-001
-3.2828856E-001	8.793217045841395E-001
-3.2734796E-001	8.796579001054674E-001
-3.2650605E-001	8.803608482358647E-001
-3.2532114E-001	8.811442170430093E-001
-3.2407275E-001	8.817183126466048E-001
-3.2331267E-001	8.819868234848478E-001
-3.2256034E-001	8.826894339360774E-001
-3.2152277E-001	8.832363415923372E-001
-3.2030365E-001	8.837493393156244E-001
-3.1930479E-001	8.843174549956885E-001
-3.1810904E-001	8.849810520531971E-001
-3.1725946E-001	8.854304258194254E-001
-3.1611764E-001	8.857909656971152E-001
-3.1566870E-001	8.864480023858725E-001
-3.1414452E-001	8.871357647909051E-001
-3.1315100E-001	8.876695430011399E-001
-3.1219211E-001	8.884006552398205E-001
-3.1111091E-001	8.889740317573391E-001
-3.1032926E-001	8.893680699445614E-001
-3.0893427E-001	8.900114052273622E-001
-3.0819377E-001	8.905074389195118E-001
-3.0700266E-001	8.911457521220045E-001
-3.0640998E-001	8.916723263208528E-001
-3.0483153E-001	8.920674265743567E-001
-3.0415037E-001	8.926183070849509E-001
-3.0347267E-001	8.932919488460941E-001
-3.0190441E-001	8.939665127249192E-001
-3.0150369E-001	8.944445673238306E-001
-3.0015138E-001	8.949511873501326E-001
-2.9861963E-001	8.955923660694758E-001
-2.9822120E-001	8.958109788320705E-001
-2.9742992E-001	8.964601417724545E-001
-2.9617992E-001	8.970847989398063E-001
-2.9505503E-001	8.973073603378410E-001
-2.9451111E-001	8.980573604030013E-001
-2.9305550E-001	8.987960602950160E-001
-2.9226509E-001	8.992039329475823E-001
-2.9110771E-001	8.999917006642484E-001
-2.9001594E-001	9.004877049613889E-001
-2.8915447E-001	9.011386819183791E-001
-2.8837723E-001	9.016197969906896E-001
-2.8706163E-001	9.020065612815036E-001
-2.8623179E-001	9.027635206778832E-001
-2.8510582E-001	9.032040166394135E-001
-2.8420490E-001	9.038267361897034E-001
-2.8319761E-001	9.042232964731465E-001
-2.8215238E-001	9.052357138307010E-001
-2.8104186E-001	9.056391918824787E-001
-2.8031912E-001	9.065175036623210E-001
-2.7921122E-001	9.069330079687972E-001
-2.7787948E-001	9.071539240302879E-001
-2.7732518E-001	9.076517565369286E-001
-2.7634791E-001	9.078605123968031E-001
-2.7542749E-001	9.086342865118269E-001
-2.7428231E-001	9.087460976960831E-001
-2.7332363E-001	9.095661449763508E-001
-2.7252138E-001	9.097178183568833E-001
-2.7137756E-001	9.107540256723228E-001
-2.6977238E-001	9.112202068445852E-001
-2.6919892E-001	9.118122647901785E-001
-2.6780003E-001	9.125409267014941E-001
-2.6751050E-001	9.131449701057512E-001
-2.6626152E-001	9.135787605183374E-001
-2.6521420E-001	9.137322909578147E-001
-2.6392341E-001	9.143262371696830E-001
-2.6333916E-001	9.150773540483321E-001
-2.6208404E-001	9.154833133022002E-001
-2.6128367E-001	9.160286817285768E-001
-2.6018256E-001	9.163104749544111E-001
-2.5919846E-001	9.168557135595226E-001
-2.5845480E-001	9.169292444459636E-001
-2.5714085E-001	9.175936807360898E-001
-2.5602844E-001	9.182061103207113E-001
-2.5531805E-001	9.189193425934885E-001
-2.5423130E-001	9.195260751854466E-001
-2.5282767E-001	9.203207989533713E-001
-2.5259763E-001	9.203196046367994E-001
-2.5122884E-001	9.209521788137867E-001
-2.5023589E-001	9.214877493127647E-001
-2.4885237E-001	9.217471808683566E-001
-2.4803144E-001	9.224491093169831E-001
-2.4755734E-001	9.229766322230795E-001
-2.4653573E-001	9.232943944765033E-001
-2.4533848E-001	9.240420495194435E-001
-2.4392642E-001	9.239336574556347E-001
-2.4319200E-001	9.242285708034466E-001
-2.4268499E-001	9.251130028731236E-001
-2.4105705E-001	9.254269783392992E-001
-2.4031934E-001	9.260366840495013E-001
-2.3918276E-001	9.269116249073477E-001
-2.3842132E-001	9.269537074890426E-001
-2.3732303E-001	9.277707952316193E-001
-2.3640156E-001	9.283149830169151E-001
-2.3519976E-001	9.286333673353564E-001
-2.3434392E-001	9.291908234633794E-001
-2.3343226E-001	9.298058524201132E-001
-2.3212759E-001	9.302418241622287E-001
-2.3132364E-001	9.305916779019210E-001
-2.3009507E-001	9.311965071110961E-001
-2.2902143E-001	9.311464857999958E-001
-2.2817121E-001	9.318453588143516E-001
-2.2754584E-001	9.322808169615850E-001
-2.2614244E-001	9.330137941848364E-001
-2.2532131E-001	9.333443365715191E-001
-2.2423016E-001	9.339473478947955E-001
-2.2292511E-001	9.340140869220099E-001
-2.2269174E-001	9.351354909163954E-001
-2.2123216E-001	9.353125317974609E-001
-2.2029004E-001	9.358532751600031E-001
-2.1914524E-001	9.363446238482485E-001
-2.1842651E-001	9.368697822921810E-001
-2.1730201E-001	9.370414400818170E-001
-2.1611834E-001	9.373411622941781E-001
-2.1546714E-001	9.383477975648855E-001
-2.1414240E-001	9.391845915880461E-001
-2.1295740E-001	9.393392291695228E-001
-2.1225466E-001	9.396637511198147E-001
-2.1118492E-001	9.398237084624945E-001
-2.1047194E-001	9.400170152031571E-001
-2.0957275E-001	9.402134504031272E-001
-2.0810610E-001	9.403415719668047E-001
-2.0729768E-001	9.404437955102960E-001
-2.0617595E-001	9.411943194766863E-001
-2.0520018E-001	9.420319438670361E-001
-2.0403261E-001	9.422464076843529E-001
-2.0321380E-001	9.426075853407410E-001
-2.0218705E-001	9.431809096290413E-001
-2.0103462E-001	9.436216077042978E-001
-2.0001748E-001	9.438850000776657E-001
-1.9921464E-001	9.441665995101692E-001
-1.9829859E-001	9.446569151348552E-001
-1.9718409E-001	9.450106972621519E-001
-1.9630288E-001	9.455415966361187E-001
-1.9509335E-001	9.463031450631441E-001
-1.9453970E-001	9.462455790335440E-001
-1.9335540E-001	9.469143313666191E-001
-1.9229220E-001	9.476160614026927E-001
-1.9127944E-001	9.477189576413743E-001
-1.9038093E-001	9.479852106284206E-001
-1.8925667E-001	9.485027316819767E-001
-1.8827343E-001	9.491355195147335E-001
-1.8705012E-001	9.497167873713757E-001
-1.8646166E-001	9.495137482881546E-001
-1.8534321E-001	9.504336442938204E-001
-1.8416645E-001	9.505143520180823E-001
-1.8330139E-001	9.512627962286793E-001
-1.8233928E-001	9.510684030669858E-001
-1.8145843E-001	9.517173390421618E-001
-1.8044887E-001	9.522359115357055E-001
-1.7911974E-001	9.525463961892697E-001
-1.7778629E-001	9.530955998709914E-001
-1.7745195E-001	9.530459683413608E-001
-1.7607655E-001	9.537100797450127E-001
-1.7523101E-001	9.541434183440849E-001
-1.7415138E-001	9.542929229571389E-001
-1.7301449E-001	9.550045369951796E-001
-1.7222196E-001	9.550577215850335E-001
-1.7124300E-001	9.555469074672116E-001
-1.7000377E-001	9.562711486661861E-001
-1.6940936E-001	9.565549328647265E-001
-1.6851103E-001	9.569116028658637E-001
-1.6736999E-001	9.575419482533576E-001
-1.6635939E-001	9.576849343023067E-001
-1.6520332E-001	9.577287704580399E-001
-1.6428225E-001	9.582393392920459E-001
-1.6334035E-001	9.589713364011061E-001
-1.6228445E-001	9.590186420138260E-001
-1.6153055E-001	9.590458660214036E-001
-1.6066732E-001	9.599438205673749E-001
-1.5916193E-001	9.602190751444422E-001
-1.5864369E-001	9.609215633460764E-001
-1.5747243E-001	9.614130516889539E-001
-1.5613338E-001	9.613003108512446E-001
-1.5537480E-001	9.614492723445527E-001
-1.5410991E-001	9.619558779177808E-001
-1.5339461E-001	9.624851703367838E-001
-1.5232445E-001	9.629510335444067E-001
-1.5097657E-001	9.632439932061558E-001
-1.5032555E-001	9.632662998305443E-001
-1.4920995E-001	9.640259959709319E-001
-1.4844738E-001	9.641043356171366E-001
-1.4713198E-001	9.646197507778811E-001
-1.4623299E-001	9.650058913803381E-001
-1.4526951E-001	9.652642865699779E-001
-1.4410174E-001	9.662022226386604E-001
-1.4312603E-001	9.663238326708505E-001
-1.4234087E-001	9.670647272357229E-001
-1.4119981E-001	9.671862233512023E-001
-1.4022510E-001	9.677091038061540E-001
-1.3946569E-001	9.683820017510008E-001
-1.3844198E-001	9.694601454068987E-001
-1.3701710E-001	9.695073057104011E-001
-1.3661428E-001	9.697315030627762E-001
-1.3546625E-001	9.700317154618823E-001
-1.3410398E-001	9.703726536697772E-001
-1.3321389E-001	9.706537173026142E-001
-1.3206421E-001	9.708625873004451E-001
-1.3110490E-001	9.710401525651999E-001
-1.3013993E-001	9.711778365351513E-001
-1.2896751E-001	9.711810620246695E-001
-1.2823418E-001	9.715514396903693E-001
-1.2726815E-001	9.716982894880219E-001
-1.2619989E-001	9.724899867066608E-001
-1.2493198E-001	9.722632757491531E-001
-1.2442288E-001	9.727490361432327E-001
-1.2323921E-001	9.739735167887460E-001
-1.2216246E-001	9.737800505978109E-001
-1.2118014E-001	9.742219227385913E-001
-1.2051295E-001	9.746802545808011E-001
-1.1939716E-001	9.745669836799289E-001
-1.1835797E-001	9.750856801329779E-001
-1.1708391E-001	9.750211764540926E-001
-1.1630316E-001	9.756127829386010E-001
-1.1527998E-001	9.760637092921485E-001
-1.1435362E-001	9.767110132508847E-001
-1.1352631E-001	9.770257078336755E-001
-1.1243366E-001	9.774124834824462E-001
-1.1123174E-001	9.777555336002965E-001
-1.1036550E-001	9.778527079714570E-001
-1.0940087E-001	9.778601237469235E-001
-1.0819896E-001	9.785356213925080E-001
-1.0716620E-001	9.788086625495858E-001
-1.0608406E-001	9.789522130180259E-001
-1.0514581E-001	9.790766441987557E-001
-1.0434057E-001	9.793842770279255E-001
-1.0353088E-001	9.798916396167510E-001
-1.0241219E-001	9.803874816066500E-001
-1.0084195E-001	9.804810551857504E-001
-1.0047540E-001	9.811387360095996E-001
-9.9312104E-002	9.810749183462333E-001
-9.8627776E-002	9.816675021968493E-001
-9.7367518E-002	9.821345403238553E-001
-9.6282624E-002	9.825573707712660E-001
-9.5370762E-002	9.828141624176983E-001
-9.4329432E-002	9.832537995168469E-001
-9.2964299E-002	9.831489664371826E-001
-9.2291944E-002	9.839446544647223E-001
-9.1434732E-002	9.843829523909982E-001
-9.0487808E-002	9.849371475118076E-001
-8.9356095E-002	9.850681831163381E-001
-8.8633135E-002	9.850688835495447E-001
-8.7299950E-002	9.856302329787514E-001
-8.6423650E-002	9.856875089031689E-001
-8.5330509E-002	9.855044231151560E-001
-8.4233858E-002	9.859278316575084E-001
-8.2915902E-002	9.862649646346178E-001
-8.2093261E-002	9.872869436954499E-001
-8.1695549E-002	9.869711141067494E-001
-8.0320954E-002	9.873374049310355E-001
-7.9264209E-002	9.877241289379053E-001
-7.8195870E-002	9.882658448208268E-001
-7.7411480E-002	9.882869153782261E-001
-7.6718397E-002	9.889001613137900E-001
-7.5345725E-002	9.892234667031863E-001
-7.4238293E-002	9.898800455183618E-001
-7.3316932E-002	9.898321358142113E-001
-7.2602704E-002	9.901961324115618E-001
-7.1075231E-002	9.901210451794142E-001
-7.0376217E-002	9.908471369632963E-001
-6.9550611E-002	9.911680595466379E-001
-6.8462513E-002	9.914582716119220E-001
-6.7486189E-002	9.917637751334270E-001
-6.6321611E-002	9.920224058959226E-001
-6.5499187E-002	9.920089409931059E-001
-6.4337589E-002	9.928319848797926E-001
-6.3475482E-002	9.926089766554620E-001
-6.2130179E-002	9.928835023332535E-001
-6.0980245E-002	9.932671037537109E-001
-6.0281400E-002	9.938981801416702E-001
-5.9287038E-002	9.940957446341143E-001
-5.8574934E-002	9.947354997749613E-001
-5.6503691E-002	9.937457261689850E-001
-5.6329347E-002	9.945799515203220E-001
-5.5446681E-002	9.951316405225690E-001
-5.4193113E-002	9.953151066908941E-001
-5.3379714E-002	9.958886070935797E-001
-5.2445512E-002	9.958857536591843E-001
-5.1218349E-002	9.961386951475437E-001
-5.0137557E-002	9.962900198168221E-001
-4.9198262E-002	9.968455607718845E-001
-4.8519876E-002	9.971967386426748E-001
-4.7403231E-002	9.970176746999773E-001
-4.6156287E-002	9.978641502368966E-001
-4.5498755E-002	9.979429512664169E-001
-4.4109318E-002	9.978885620280575E-001
-4.3498576E-002	9.983951712698058E-001
-4.2188719E-002	9.982562298300088E-001
-4.1594125E-002	9.986304275139624E-001
-4.0242314E-002	9.994251326274597E-001
-3.9499152E-002	9.994238031407210E-001
-3.8367443E-002	9.999155641008084E-001
-3.7270546E-002	1.000354925929397E+000
-3.6124423E-002	1.000449166667685E+000
-3.5440236E-002	1.000523205318433E+000
-3.4091182E-002	1.000906260753119E+000
-3.3119425E-002	1.001312576096364E+000
-3.2453012E-002	1.001534812645389E+000
-3.1185882E-002	1.001811030838225E+000
-3.0190371E-002	1.001945967613551E+000
-2.9294766E-002	1.002863724249664E+000
-2.8650749E-002	1.003462189601530E+000
-2.7358679E-002	1.003499492037076E+000
-2.6335377E-002	1.003522615279884E+000
-2.5391199E-002	1.003596310952193E+000
-2.4105735E-002	1.003672344138074E+000
-2.3669146E-002	1.003850433147617E+000
-2.1952400E-002	1.004177961222549E+000
-2.1291800E-002	1.004609810139536E+000
-2.0418718E-002	1.004437310828100E+000
-1.9335596E-002	1.005271458791364E+000
-1.8234398E-002	1.005185582887723E+000
-1.7349236E-002	1.005836238325743E+000
-1.6174685E-002	1.005663531246009E+000
-1.5354079E-002	1.005935545387987E+000
-1.4456665E-002	1.006357589253675E+000
-1.2928074E-002	1.006824115360223E+000
-1.2487275E-002	1.006710891046482E+000
-1.1262027E-002	1.007132260749735E+000
-1.0653337E-002	1.007000117281487E+000
-8.9010475E-003	1.007410769247347E+000
-8.6131906E-003	1.007803528397169E+000
-7.1386499E-003	1.008126100145589E+000
-6.4670988E-003	1.007906555577557E+000
-5.2861846E-003	1.008570919710180E+000
-4.4983895E-003	1.009230164655239E+000
-3.7255634E-003	1.008998848083950E+000
-2.2478835E-003	1.009452820928005E+000
-1.3344486E-003	1.009552210937571E+000
-2.8591690E-004	1.009940114838106E+000
7.7105081E-004	1.009909864640963E+000
1.6571695E-003	1.010295907794323E+000
2.5945602E-003	1.010290753924184E+000
3.8817979E-003	1.011373030635943E+000
4.8834141E-003	1.010816543190561E+000
5.6738011E-003	1.011058353025605E+000
6.6397623E-003	1.011472604256953E+000
7.3763370E-003	1.012553236701272E+000