EC-Lab ASCII FILE
Nb header lines : 63                          

Linear Sweep Voltammetry

Run on channel : 6 (SN 13765)
User : 
Electrode connection : standard
Potential control : Ewe
Ewe ctrl range : min = -2.50 V, max = 2.50 V
Ewe,I filtering : <None>
Safety Limits :
	Do not start on E overload
Channel : Floating
Acquisition started on : 07/17/2026 14:24:55.370
Technique started on : 07/17/2026 14:24:56.367
Loaded Setting File :  C:\Users\EEM-620\Desktop\Wade\abao\20260629\N719_0629-0-1_C06.mpr
Saved on :
	File : N719_0717-i-1_C06.mpr
	Directory : C:\Users\EEM-620\Desktop\Wade\abao\20260717\
	Host : 192.109.209.200
Device : VSP-300 (SN 0025)
Address : 192.109.209.129
EC-LAB for windows v11.62 (software)
Internet server v27.00 (firmware)
Command interpretor v12.02 (firmware)
Electrode material : Au/Pd
Initial state : 
Electrolyte : NaCl (0.2M)
Comments : Fe(CN)63-/Fe(CN)64- 5.10-3 M
Cable : ULC
Reference electrode : SCE Saturated Calomel Electrode (0.241 V)
Electrode surface area : 0.001 cm2
Characteristic mass : 0.001 g
Equivalent Weight : 0.000 g/eq.
Density : 0.000 g/cm3
Volume (V) : 0.001 cm3
Cycle Definition : Charge/Discharge alternance
tR (h:m:s)          0:00:5.0000         
dER/dt (mV/h)       0.0                 
dER (mV)            0                   
dtR (s)             0.0500              
dE/dt               10.000              
dE/dt unit          mV/s                
Ei (V)              -0.800              
vs.                 Ref                 
EL (V)              0.010               
vs.                 Ref                 
record              <I>                 
dI                  0.000               
unit dI             uA                  
tI (s)              0.0000              
step percent        50                  
N                   10                  
E range min (V)     -2.500              
E range max (V)     2.500               
I Range             Auto                
I Range min         Unset               
I Range max         Unset               
I Range init        Unset               
Bandwidth           8                   

Ewe/V	<I>/mA	
-6.3369590E-001	0.000000000000000E+000
-6.3451302E-001	0.000000000000000E+000
-6.3332176E-001	0.000000000000000E+000
-6.3504380E-001	0.000000000000000E+000
-6.3437176E-001	0.000000000000000E+000
-6.3481086E-001	0.000000000000000E+000
-6.3450158E-001	0.000000000000000E+000
-6.3507056E-001	0.000000000000000E+000
-6.3384867E-001	0.000000000000000E+000
-6.3427252E-001	0.000000000000000E+000
-6.3424194E-001	0.000000000000000E+000
-6.3327974E-001	0.000000000000000E+000
-6.3417703E-001	0.000000000000000E+000
-6.3488722E-001	0.000000000000000E+000
-6.3371503E-001	0.000000000000000E+000
-6.3350117E-001	0.000000000000000E+000
-6.3318044E-001	0.000000000000000E+000
-6.3359284E-001	0.000000000000000E+000
-6.3470018E-001	0.000000000000000E+000
-6.3416177E-001	0.000000000000000E+000
-6.3375700E-001	0.000000000000000E+000
-6.3356614E-001	0.000000000000000E+000
-6.3339812E-001	0.000000000000000E+000
-6.3365012E-001	0.000000000000000E+000
-6.3332552E-001	0.000000000000000E+000
-6.3414651E-001	0.000000000000000E+000
-6.3391733E-001	0.000000000000000E+000
-6.3364249E-001	0.000000000000000E+000
-6.3465434E-001	0.000000000000000E+000
-6.3392121E-001	0.000000000000000E+000
-6.3336754E-001	0.000000000000000E+000
-6.3335991E-001	0.000000000000000E+000
-6.3436788E-001	0.000000000000000E+000
-6.3316518E-001	0.000000000000000E+000
-6.3382572E-001	0.000000000000000E+000
-6.3383335E-001	0.000000000000000E+000
-6.3392884E-001	0.000000000000000E+000
-6.3366920E-001	0.000000000000000E+000
-6.3360047E-001	0.000000000000000E+000
-6.3415033E-001	0.000000000000000E+000
-6.3358521E-001	0.000000000000000E+000
-6.3352031E-001	0.000000000000000E+000
-6.3261914E-001	0.000000000000000E+000
-6.3326830E-001	0.000000000000000E+000
-6.3328737E-001	0.000000000000000E+000
-6.3340575E-001	0.000000000000000E+000
-6.3353175E-001	0.000000000000000E+000
-6.3328356E-001	0.000000000000000E+000
-6.3279480E-001	0.000000000000000E+000
-6.3268787E-001	0.000000000000000E+000
-6.3360047E-001	0.000000000000000E+000
-6.3307351E-001	0.000000000000000E+000
-6.3378376E-001	0.000000000000000E+000
-6.3317662E-001	0.000000000000000E+000
-6.3357371E-001	0.000000000000000E+000
-6.3403958E-001	0.000000000000000E+000
-6.3298953E-001	0.000000000000000E+000
-6.3332552E-001	0.000000000000000E+000
-6.3291317E-001	0.000000000000000E+000
-6.3350117E-001	0.000000000000000E+000
-6.3409686E-001	0.000000000000000E+000
-6.3939661E-001	0.000000000000000E+000
-6.3775098E-001	0.000000000000000E+000
-7.8889048E-001	-1.826074155171714E+000
-7.8866321E-001	-1.816039032406280E+000
-7.8777570E-001	-1.799181437050859E+000
-7.8662241E-001	-1.783868584188721E+000
-7.8603435E-001	-1.769825028324572E+000
-7.8475475E-001	-1.755658203528984E+000
-7.8360605E-001	-1.742478672213366E+000
-7.8270864E-001	-1.729745544493195E+000
-7.8168321E-001	-1.716768824667838E+000
-7.8067678E-001	-1.704276817960249E+000
-7.7979016E-001	-1.691938577150857E+000
-7.7860022E-001	-1.680165381712706E+000
-7.7760452E-001	-1.667970700396438E+000
-7.7675241E-001	-1.655972111280314E+000
-7.7565831E-001	-1.644430910324395E+000
-7.7460819E-001	-1.632340666320587E+000
-7.7364528E-001	-1.620510194312637E+000
-7.7261895E-001	-1.608705444301172E+000
-7.7173328E-001	-1.596968616324435E+000
-7.7071065E-001	-1.585242486110433E+000
-7.6965570E-001	-1.573451087241189E+000
-7.6884502E-001	-1.561947390713073E+000
-7.6781416E-001	-1.549781645121062E+000
-7.6673943E-001	-1.538367826629571E+000
-7.6565582E-001	-1.526410521180544E+000
-7.6487756E-001	-1.515289127605676E+000
-7.6372033E-001	-1.503429251274572E+000
-7.6280916E-001	-1.491652553970059E+000
-7.6172203E-001	-1.479882161621930E+000
-7.6087129E-001	-1.468494214393473E+000
-7.5988668E-001	-1.457020365391617E+000
-7.5889915E-001	-1.445428049779888E+000
-7.5783306E-001	-1.433666902421805E+000
-7.5681657E-001	-1.422308327285223E+000
-7.5576836E-001	-1.410512990955613E+000
-7.5475436E-001	-1.399097857927828E+000
-7.5372541E-001	-1.387331509488371E+000
-7.5272095E-001	-1.375746039466723E+000
-7.5161272E-001	-1.364116827784869E+000
-7.5092787E-001	-1.352632777163144E+000
-7.4971789E-001	-1.341270583647269E+000
-7.4889076E-001	-1.329422727779106E+000
-7.4790829E-001	-1.317537180580613E+000
-7.4673855E-001	-1.306721437170548E+000
-7.4588132E-001	-1.295322259405143E+000
-7.4477917E-001	-1.283563282814409E+000
-7.4388200E-001	-1.272145654454272E+000
-7.4283069E-001	-1.260557302479032E+000
-7.4176818E-001	-1.249111097030070E+000
-7.4095172E-001	-1.237727248006397E+000
-7.3995835E-001	-1.225910988619209E+000
-7.3872113E-001	-1.214437593188548E+000
-7.3783785E-001	-1.202921033043556E+000
-7.3698080E-001	-1.191688201310512E+000
-7.3581690E-001	-1.180120201298477E+000
-7.3480785E-001	-1.168843739286614E+000
-7.3389375E-001	-1.157344022587253E+000
-7.3293793E-001	-1.145704297831765E+000
-7.3192638E-001	-1.134081398309384E+000
-7.3086542E-001	-1.122986410967631E+000
-7.2981399E-001	-1.111357334449334E+000
-7.2882521E-001	-1.099914221492572E+000
-7.2769058E-001	-1.088495710243777E+000
-7.2668058E-001	-1.076869528188748E+000
-7.2576874E-001	-1.065571575301144E+000
-7.2471398E-001	-1.053913098656469E+000
-7.2374374E-001	-1.042716826415720E+000
-7.2271216E-001	-1.031131947657848E+000
-7.2171050E-001	-1.020185932517048E+000
-7.2079110E-001	-1.008527383346252E+000
-7.1982974E-001	-9.968605179616592E-001
-7.1877611E-001	-9.854660942046660E-001
-7.1765417E-001	-9.739410634394048E-001
-7.1678174E-001	-9.625469764301648E-001
-7.1570730E-001	-9.516158539939763E-001
-7.1466613E-001	-9.399164526178510E-001
-7.1367353E-001	-9.284717778640790E-001
-7.1296400E-001	-9.176316247494084E-001
-7.1184069E-001	-9.060768166796933E-001
-7.1078295E-001	-8.946843337681560E-001
-7.0981467E-001	-8.835627843660347E-001
-7.0894027E-001	-8.719522706656377E-001
-7.0766467E-001	-8.608705204118188E-001
-7.0682889E-001	-8.495791181921923E-001
-7.0561051E-001	-8.381449925436968E-001
-7.0485973E-001	-8.269736732321740E-001
-7.0373946E-001	-8.154989503646755E-001
-7.0287567E-001	-8.042361378945664E-001
-7.0174319E-001	-7.927513365392329E-001
-7.0078671E-001	-7.819286089873057E-001
-6.9981813E-001	-7.703670546826356E-001
-6.9856209E-001	-7.593848938467325E-001
-6.9782460E-001	-7.478957009079679E-001
-6.9658208E-001	-7.369031158310388E-001
-6.9574696E-001	-7.255477167114064E-001
-6.9478804E-001	-7.140487636326505E-001
-6.9373131E-001	-7.029985255665241E-001
-6.9281125E-001	-6.917810952635834E-001
-6.9159549E-001	-6.802742355489775E-001
-6.9079316E-001	-6.695855844903861E-001
-6.8950260E-001	-6.578724521575197E-001
-6.8878222E-001	-6.467860889517607E-001
-6.8785954E-001	-6.355285614177042E-001
-6.8681848E-001	-6.245471037268224E-001
-6.8594098E-001	-6.131685914954672E-001
-6.8473750E-001	-6.022150050158848E-001
-6.8400270E-001	-5.910415088744687E-001
-6.8280673E-001	-5.794676115253470E-001
-6.8183857E-001	-5.678926726320270E-001
-6.8076259E-001	-5.571754722421307E-001
-6.7971557E-001	-5.456401064164096E-001
-6.7870784E-001	-5.346479237907484E-001
-6.7779815E-001	-5.234873243600071E-001
-6.7691875E-001	-5.122026787311931E-001
-6.7567378E-001	-5.013935583174691E-001
-6.7468029E-001	-4.899181862258253E-001
-6.7380577E-001	-4.786717132837692E-001
-6.7290878E-001	-4.677627654620817E-001
-6.7196381E-001	-4.569649839152863E-001
-6.7071432E-001	-4.446927049818123E-001
-6.6946012E-001	-4.321245057523342E-001
-6.6857278E-001	-4.213714078068742E-001
-6.6747385E-001	-4.098614604118511E-001
-6.6622198E-001	-3.988795463271710E-001
-6.6553849E-001	-3.876366737747086E-001
-6.6461861E-001	-3.767353436215473E-001
-6.6379416E-001	-3.654814262494996E-001
-6.6288018E-001	-3.544476448247824E-001
-6.6147095E-001	-3.432062502110766E-001
-6.6056246E-001	-3.322327661293518E-001
-6.5962338E-001	-3.209970840080469E-001
-6.5844566E-001	-3.095085605846589E-001
-6.5771103E-001	-2.983824943916662E-001
-6.5670735E-001	-2.875494905230074E-001
-6.5575647E-001	-2.765397189047047E-001
-6.5442771E-001	-2.652800106615936E-001
-6.5380007E-001	-2.542239929518164E-001
-6.5273154E-001	-2.431967018724031E-001
-6.5163970E-001	-2.322367185864733E-001
-6.5036654E-001	-2.212748217209547E-001
-6.4939630E-001	-2.101796580202602E-001
-6.4828748E-001	-1.990094770918843E-001
-6.4777005E-001	-1.880645948899842E-001
-6.4617991E-001	-1.770233253913900E-001
-6.4584184E-001	-1.662616035728552E-001
-6.4463592E-001	-1.550844495222683E-001
-6.4350718E-001	-1.440202599322351E-001
-6.4252120E-001	-1.332108276860073E-001
-6.4155030E-001	-1.223009423421768E-001
-6.4061415E-001	-1.112504785501023E-001
-6.4000046E-001	-1.006960980542755E-001
-6.3864225E-001	-8.938331214745576E-002
-6.3735777E-001	-7.825106134017301E-002
-6.3640583E-001	-6.745033116240973E-002
-6.3560247E-001	-5.629230322557729E-002
-6.3441628E-001	-4.551339332290261E-002
-6.3333058E-001	-3.329395178495431E-002
-6.3219976E-001	-2.074863595017058E-002
-6.3112664E-001	-9.683521653912966E-003
-6.3031793E-001	1.399280225418423E-003
-6.2923908E-001	1.237443418681827E-002
-6.2830925E-001	2.355752752475770E-002
-6.2731785E-001	3.450591974305350E-002
-6.2622219E-001	4.515107916409322E-002
-6.2497562E-001	5.614358740063019E-002
-6.2460107E-001	6.720396932386974E-002
-6.2324220E-001	7.809444702299395E-002
-6.2205088E-001	8.882875318888228E-002
-6.2125760E-001	9.991172601089460E-002
-6.2026399E-001	1.118753849837308E-001
-6.1867410E-001	1.240741120892825E-001
-6.1760962E-001	1.348466688801568E-001
-6.1670542E-001	1.458447616450727E-001
-6.1570096E-001	1.565981817742189E-001
-6.1503351E-001	1.673082885056454E-001
-6.1396092E-001	1.782939977815401E-001
-6.1295301E-001	1.889366821937812E-001
-6.1171716E-001	1.998854191904824E-001
-6.1095685E-001	2.105186476181720E-001
-6.0976344E-001	2.214627080355522E-001
-6.0882246E-001	2.317799088727277E-001
-6.0771066E-001	2.427918942369247E-001
-6.0698628E-001	2.533642671381440E-001
-6.0585928E-001	2.637320401011185E-001
-6.0499150E-001	2.748152517058218E-001
-6.0382217E-001	2.852377368275221E-001
-6.0272503E-001	2.960351807885706E-001
-6.0184920E-001	3.068635156378146E-001
-6.0090965E-001	3.174187451670010E-001
-6.0006189E-001	3.279088507114967E-001
-5.9878159E-001	3.390191276730210E-001
-5.9777158E-001	3.494459187350945E-001
-5.9708440E-001	3.604271543315676E-001
-5.9586906E-001	3.709683343078245E-001
-5.9506595E-001	3.815508274953272E-001
-5.9370011E-001	3.922156811588327E-001
-5.9315962E-001	4.029249966282524E-001
-5.9202808E-001	4.137575327418184E-001
-5.9096175E-001	4.241924162402180E-001
-5.8987880E-001	4.346619665070808E-001
-5.8878499E-001	4.453675669936095E-001
-5.8774781E-001	4.558009316937790E-001
-5.8705074E-001	4.663268083499537E-001
-5.8603489E-001	4.768493742098650E-001
-5.8459985E-001	4.878084250484340E-001
-5.8379155E-001	4.982110180684831E-001
-5.8298516E-001	5.086824792540714E-001
-5.8175093E-001	5.191217817504103E-001
-5.8096606E-001	5.296735686060741E-001
-5.7975149E-001	5.400853922797584E-001
-5.7922345E-001	5.506439091706721E-001
-5.7815772E-001	5.612698037780106E-001
-5.7710516E-001	5.721409176648757E-001
-5.7597643E-001	5.822622881581383E-001
-5.7503450E-001	5.930820200633775E-001
-5.7357305E-001	6.031278917496938E-001
-5.7272190E-001	6.130846883001517E-001
-5.7198036E-001	6.235839594845398E-001
-5.7070780E-001	6.344430245872985E-001
-5.7002896E-001	6.447059936522788E-001
-5.6894928E-001	6.553124905460406E-001
-5.6792533E-001	6.657473578773185E-001
-5.6708294E-001	6.762421677050612E-001
-5.6598145E-001	6.865104458260320E-001
-5.6475872E-001	6.968634574225643E-001
-5.6409496E-001	7.069987864784153E-001
-5.6267864E-001	7.175205727970209E-001
-5.6150407E-001	7.276381663978082E-001
-5.6124616E-001	7.384050335732795E-001
-5.6001824E-001	7.483329040998683E-001
-5.5880845E-001	7.590303028254333E-001
-5.5748510E-001	7.691928518039237E-001
-5.5670780E-001	7.797890691155622E-001
-5.5582732E-001	7.898351820835998E-001
-5.5516380E-001	8.000854847055872E-001
-5.5367422E-001	8.105760583723036E-001
-5.5302238E-001	8.205930630797198E-001
-5.5193472E-001	8.310000370774011E-001
-5.5093980E-001	8.414182976164177E-001
-5.5012500E-001	8.518225712203495E-001
-5.4906595E-001	8.614440052597638E-001
-5.4774672E-001	8.720970193820983E-001
-5.4737300E-001	8.821870557087994E-001
-5.4590929E-001	8.924247273416377E-001
-5.4505134E-001	9.022730208491136E-001
-5.4398233E-001	9.126424186483584E-001
-5.4267412E-001	9.229054784885182E-001
-5.4186022E-001	9.332612803839146E-001
-5.4062903E-001	9.430026242302514E-001
-5.3971881E-001	9.529807574495164E-001
-5.3882962E-001	9.631269174719606E-001
-5.3742695E-001	9.733774464715417E-001
-5.3680199E-001	9.834897393981610E-001
-5.3583133E-001	9.934480000919912E-001
-5.3463453E-001	1.003368769392925E+000
-5.3392577E-001	1.013579966568879E+000
-5.3317636E-001	1.023521931772986E+000
-5.3187597E-001	1.033551849700785E+000
-5.3128058E-001	1.043316128075993E+000
-5.2994967E-001	1.053450679475507E+000
-5.2895677E-001	1.063256645782127E+000
-5.2807415E-001	1.073449047495110E+000
-5.2692133E-001	1.083454234180628E+000
-5.2584714E-001	1.093623433262110E+000
-5.2458680E-001	1.106644638960081E+000
-5.2372146E-001	1.116936473520816E+000
-5.2272439E-001	1.126070954222067E+000
-5.2175564E-001	1.136256303086324E+000
-5.2069181E-001	1.146204722976242E+000
-5.1964742E-001	1.155592660065910E+000
-5.1866955E-001	1.166041986257943E+000
-5.1762545E-001	1.175736782451470E+000
-5.1679426E-001	1.185692912374365E+000
-5.1576024E-001	1.194817191334789E+000
-5.1465189E-001	1.204998115422544E+000
-5.1381558E-001	1.215321520614875E+000
-5.1276886E-001	1.224690305965919E+000
-5.1163930E-001	1.234759819619040E+000
-5.1041651E-001	1.244457982204583E+000
-5.0979483E-001	1.254247388767979E+000
-5.0864106E-001	1.264562845114911E+000
-5.0765508E-001	1.274028401683875E+000
-5.0685364E-001	1.284094694863867E+000
-5.0566411E-001	1.293185591449517E+000
-5.0477856E-001	1.303267256391271E+000
-5.0362670E-001	1.313443575054404E+000
-5.0273412E-001	1.322760490140565E+000
-5.0162959E-001	1.332085591775400E+000
-5.0063103E-001	1.342078054116833E+000
-4.9964893E-001	1.351278937027313E+000
-4.9856985E-001	1.360542417262439E+000
-4.9781683E-001	1.369787564598383E+000
-4.9672118E-001	1.379608863067844E+000
-4.9565223E-001	1.389586425765794E+000
-4.9490711E-001	1.398819932987239E+000
-4.9383470E-001	1.408295222730551E+000
-4.9274650E-001	1.417968211488596E+000
-4.9167067E-001	1.428077398622989E+000
-4.9060169E-001	1.437163891615697E+000
-4.8968211E-001	1.446379201279745E+000
-4.8877347E-001	1.455833791685551E+000
-4.8772845E-001	1.465222225558981E+000
-4.8672000E-001	1.474426046750448E+000
-4.8548770E-001	1.483738542154982E+000
-4.8459002E-001	1.493800563668756E+000
-4.8376605E-001	1.502728395378288E+000
-4.8279393E-001	1.512355360719894E+000
-4.8157084E-001	1.521686062216760E+000
-4.8060259E-001	1.530938710901573E+000
-4.7970116E-001	1.539835256282927E+000
-4.7889715E-001	1.549710027459596E+000
-4.7788951E-001	1.558785242287989E+000
-4.7667190E-001	1.568311897968801E+000
-4.7553793E-001	1.577898919306424E+000
-4.7465634E-001	1.587022592757503E+000
-4.7390050E-001	1.596617124422837E+000
-4.7269917E-001	1.605637473444034E+000
-4.7170159E-001	1.614627598612395E+000
-4.7069800E-001	1.623855243126553E+000
-4.6955216E-001	1.633525501987291E+000
-4.6895733E-001	1.641843679050607E+000
-4.6771061E-001	1.651432479421299E+000
-4.6672276E-001	1.660502595820795E+000
-4.6555370E-001	1.669593162006805E+000
-4.6466845E-001	1.678776627337491E+000
-4.6374083E-001	1.687416392501429E+000
-4.6256018E-001	1.696073885593149E+000
-4.6177614E-001	1.705323168524995E+000
-4.6072188E-001	1.714561593081454E+000
-4.5970431E-001	1.723663595815504E+000
-4.5867789E-001	1.732582250012804E+000
-4.5775440E-001	1.741704661261149E+000
-4.5652133E-001	1.749667490798014E+000
-4.5539922E-001	1.759702912066118E+000
-4.5480838E-001	1.768544348577663E+000
-4.5378271E-001	1.777236279514096E+000
-4.5275572E-001	1.786001653654928E+000
-4.5177770E-001	1.795480118305599E+000
-4.5075271E-001	1.803908816366286E+000
-4.4962397E-001	1.812728448335328E+000
-4.4859135E-001	1.821174182825615E+000
-4.4763198E-001	1.830220939257909E+000
-4.4671831E-001	1.838940719763437E+000
-4.4574419E-001	1.848370126827994E+000
-4.4460857E-001	1.856729573946943E+000
-4.4376823E-001	1.865911891063057E+000
-4.4259131E-001	1.874023974493696E+000
-4.4176263E-001	1.883591453972407E+000
-4.4063044E-001	1.891366676875837E+000
-4.3967035E-001	1.900888268870339E+000
-4.3872422E-001	1.909326607763713E+000
-4.3768162E-001	1.918095535978129E+000
-4.3680155E-001	1.927064875761666E+000
-4.3537050E-001	1.935693493221441E+000
-4.3468150E-001	1.943957324105280E+000
-4.3370238E-001	1.953205425426088E+000
-4.3271321E-001	1.960770560083567E+000
-4.3162286E-001	1.970440547499386E+000
-4.3071812E-001	1.978306342392369E+000
-4.2963329E-001	1.987152002199934E+000
-4.2858371E-001	1.995502766911635E+000
-4.2775956E-001	2.003797103182848E+000
-4.2683113E-001	2.011788909633950E+000
-4.2554325E-001	2.021138745325587E+000
-4.2468560E-001	2.029548431314531E+000
-4.2382649E-001	2.038228531402581E+000
-4.2271286E-001	2.045870554667933E+000
-4.2166278E-001	2.054935413678191E+000
-4.2069003E-001	2.063496121101914E+000
-4.1975257E-001	2.071241114416386E+000
-4.1867861E-001	2.079884037099504E+000
-4.1771024E-001	2.088071190372673E+000
-4.1662100E-001	2.096355467514814E+000
-4.1565618E-001	2.104851939060069E+000
-4.1488197E-001	2.112855903804305E+000
-4.1376400E-001	2.120969549530409E+000
-4.1254473E-001	2.129382656680210E+000
-4.1176522E-001	2.137383002097968E+000
-4.1062599E-001	2.145901413204614E+000
-4.0943030E-001	2.154540546238425E+000
-4.0861914E-001	2.161988506162609E+000
-4.0798125E-001	2.170294316830454E+000
-4.0660942E-001	2.178185436460700E+000
-4.0555322E-001	2.185823994176005E+000
-4.0458488E-001	2.193863381666165E+000
-4.0371281E-001	2.202244814071388E+000
-4.0280408E-001	2.210583737913232E+000
-4.0178734E-001	2.218072225926107E+000
-4.0071970E-001	2.226160220525877E+000
-3.9956117E-001	2.233892006392018E+000
-3.9877895E-001	2.241960741027640E+000
-3.9783496E-001	2.249260437985255E+000
-3.9668232E-001	2.258068271111906E+000
-3.9574999E-001	2.264799141221578E+000
-3.9479619E-001	2.273357582129893E+000
-3.9367795E-001	2.280610987157733E+000
-3.9288944E-001	2.288852223919504E+000
-3.9177161E-001	2.296742614632464E+000
-3.9085004E-001	2.304679387697472E+000
-3.8976544E-001	2.311822196675681E+000
-3.8875282E-001	2.320373216768452E+000
-3.8778269E-001	2.327257634588974E+000
-3.8672861E-001	2.335288590579125E+000
-3.8590002E-001	2.342021260365701E+000
-3.8462219E-001	2.349994632380978E+000
-3.8377115E-001	2.356839969202319E+000
-3.8271132E-001	2.364441669817516E+000
-3.8167787E-001	2.371401271058456E+000
-3.8075837E-001	2.380245029002353E+000
-3.7950417E-001	2.388045572572292E+000
-3.7874135E-001	2.395819844195128E+000
-3.7769729E-001	2.402310165749828E+000
-3.7656856E-001	2.410952510657129E+000
-3.7562373E-001	2.417167592655723E+000
-3.7481031E-001	2.424761290019669E+000
-3.7368855E-001	2.432670611750204E+000
-3.7281558E-001	2.438851067589404E+000
-3.7168601E-001	2.447232921280943E+000
-3.7075967E-001	2.454204492822846E+000
-3.6979935E-001	2.461083882960723E+000
-3.6860108E-001	2.469643327373040E+000
-3.6764076E-001	2.476978588435390E+000
-3.6681965E-001	2.483741934910753E+000
-3.6572930E-001	2.491230432633998E+000
-3.6477917E-001	2.498291454933295E+000
-3.6364323E-001	2.505612111863877E+000
-3.6269823E-001	2.513192097345978E+000
-3.6187768E-001	2.520032647031327E+000
-3.6083457E-001	2.527188221900225E+000
-3.5982728E-001	2.534592461254874E+000
-3.5870638E-001	2.542380812267465E+000
-3.5777080E-001	2.549948659705251E+000
-3.5690436E-001	2.555955434287041E+000
-3.5583100E-001	2.563151877803090E+000
-3.5438409E-001	2.570062319437660E+000
-3.5394326E-001	2.577502227215854E+000
-3.5267681E-001	2.584021173345668E+000
-3.5178533E-001	2.590590514242646E+000
-3.5071471E-001	2.597382701105538E+000
-3.4972504E-001	2.603722982873101E+000
-3.4867677E-001	2.610230016487630E+000
-3.4765050E-001	2.617647714085045E+000
-3.4681359E-001	2.625006355138666E+000
-3.4578717E-001	2.631073462742352E+000
-3.4463108E-001	2.638091974236332E+000
-3.4375373E-001	2.644534829314110E+000
-3.4275332E-001	2.651415758938697E+000
-3.4170806E-001	2.658938148199484E+000
-3.4076571E-001	2.665208837224380E+000
-3.3982384E-001	2.671142873388757E+000
-3.3868009E-001	2.677352147769131E+000
-3.3766717E-001	2.684913804961575E+000
-3.3682328E-001	2.691126183779161E+000
-3.3588406E-001	2.697162663965280E+000
-3.3482060E-001	2.704099730760966E+000
-3.3388385E-001	2.711005875633813E+000
-3.3274752E-001	2.717147067799100E+000
-3.3172628E-001	2.724010068509315E+000
-3.3060300E-001	2.730943861619995E+000
-3.2953098E-001	2.738041699484540E+000
-3.2884285E-001	2.744396488975596E+000
-3.2772353E-001	2.750635435699451E+000
-3.2671651E-001	2.757143263739569E+000
-3.2570404E-001	2.762745088173290E+000
-3.2475457E-001	2.770354986948826E+000
-3.2384679E-001	2.776420844373875E+000
-3.2262477E-001	2.782706633486114E+000
-3.2167369E-001	2.789053180214196E+000
-3.2068020E-001	2.795031703732647E+000
-3.1964076E-001	2.801034551527771E+000
-3.1886446E-001	2.808031415029589E+000
-3.1773779E-001	2.813658293474610E+000
-3.1677407E-001	2.819692629616524E+000
-3.1563050E-001	2.825614923128378E+000
-3.1473851E-001	2.831998689307106E+000
-3.1379983E-001	2.838511320125065E+000
-3.1281072E-001	2.844156714501203E+000
-3.1197363E-001	2.849779769502305E+000
-3.1088576E-001	2.856965893987692E+000
-3.0983457E-001	2.862633242099371E+000
-3.0881402E-001	2.869004092282694E+000
-3.0790728E-001	2.875659941959843E+000
-3.0672032E-001	2.881262003547612E+000
-3.0579439E-001	2.885442906783680E+000
-3.0468729E-001	2.892595246446216E+000
-3.0377916E-001	2.899135171263314E+000
-3.0280647E-001	2.905610048776875E+000
-3.0179408E-001	2.910929125492210E+000
-3.0056438E-001	2.917766247082646E+000
-2.9957139E-001	2.922963760317771E+000
-2.9871634E-001	2.929651597031835E+000
-2.9776427E-001	2.934947852183271E+000
-2.9686898E-001	2.940594836246078E+000
-2.9578513E-001	2.947492970084696E+000
-2.9481998E-001	2.953356137982112E+000
-2.9376605E-001	2.958931069271955E+000
-2.9268107E-001	2.965204094847039E+000
-2.9184139E-001	2.971694523731173E+000
-2.9076472E-001	2.977991697412946E+000
-2.8969032E-001	2.983133799223985E+000
-2.8876516E-001	2.989164854719510E+000
-2.8787914E-001	2.994523467013121E+000
-2.8685606E-001	3.000749775380999E+000
-2.8587604E-001	3.005710984294296E+000
-2.8467986E-001	3.012314937732832E+000
-2.8370920E-001	3.016518987439312E+000
-2.8260511E-001	3.022868682290994E+000
-2.8165978E-001	3.028467354675122E+000
-2.8085816E-001	3.034588961137658E+000
-2.7970916E-001	3.040730923798524E+000
-2.7880502E-001	3.045753879679559E+000
-2.7780950E-001	3.051318801355343E+000
-2.7671808E-001	3.056919458287730E+000
-2.7567184E-001	3.063192583344598E+000
-2.7484334E-001	3.069135603644497E+000
-2.7385244E-001	3.074114797843829E+000
-2.7273986E-001	3.079127181735302E+000
-2.7160525E-001	3.084906619002357E+000
-2.7081627E-001	3.090844477492340E+000
-2.6981077E-001	3.096551531442891E+000
-2.6876026E-001	3.102150756185509E+000
-2.6782784E-001	3.107018139903175E+000
-2.6664054E-001	3.113008271212931E+000
-2.6555252E-001	3.119181939309257E+000
-2.6479039E-001	3.123859807848930E+000
-2.6389056E-001	3.129913850999280E+000
-2.6295081E-001	3.134460747241974E+000
-2.6184076E-001	3.140605078251276E+000
-2.6086074E-001	3.145404053866685E+000
-2.5963843E-001	3.151978177604846E+000
-2.5867453E-001	3.157599218465671E+000
-2.5773123E-001	3.162453885444423E+000
-2.5677279E-001	3.169412040048172E+000
-2.5576267E-001	3.174020625926836E+000
-2.5474787E-001	3.179177371592949E+000
-2.5390759E-001	3.184222496218165E+000
-2.5283816E-001	3.188654104162012E+000
-2.5177425E-001	3.194740011736204E+000
-2.5083217E-001	3.199548953661213E+000
-2.4968593E-001	3.203844720593871E+000
-2.4889544E-001	3.210423600894416E+000
-2.4777348E-001	3.215404874748657E+000
-2.4660899E-001	3.220778724460587E+000
-2.4583147E-001	3.225928971060998E+000
-2.4484487E-001	3.230876057788166E+000
-2.4377438E-001	3.236194775535374E+000
-2.4295716E-001	3.242823797795506E+000
-2.4173425E-001	3.247112704096018E+000
-2.4061906E-001	3.252531811279457E+000
-2.3970757E-001	3.257661430924045E+000
-2.3853746E-001	3.263075409963854E+000
-2.3761685E-001	3.267725062591062E+000
-2.3678572E-001	3.273408564152547E+000
-2.3579112E-001	3.277629187206102E+000
-2.3483969E-001	3.283827273382073E+000
-2.3376925E-001	3.289333060935700E+000
-2.3271924E-001	3.294496184182776E+000
-2.3176570E-001	3.299254897016071E+000
-2.3091656E-001	3.305187551511658E+000
-2.2973433E-001	3.309335140006183E+000
-2.2861394E-001	3.314709749486717E+000
-2.2784476E-001	3.319510351176611E+000
-2.2682063E-001	3.324877472219455E+000
-2.2569083E-001	3.329128456336477E+000
-2.2492762E-001	3.335981516309232E+000
-2.2387163E-001	3.340682914963466E+000
-2.2279359E-001	3.345332034208155E+000
-2.2209375E-001	3.350355787432925E+000
-2.2083968E-001	3.354912156308146E+000
-2.1965176E-001	3.360109774050876E+000
-2.1868601E-001	3.364720491629711E+000
-2.1777232E-001	3.369162950250825E+000
-2.1676555E-001	3.374030687742760E+000
-2.1578954E-001	3.379564193324100E+000
-2.1492238E-001	3.384020991347445E+000
-2.1389373E-001	3.388372789926621E+000
-2.1278583E-001	3.394163255890206E+000
-2.1182065E-001	3.399277325029701E+000
-2.1092585E-001	3.403275843945501E+000
-2.0983917E-001	3.408351086907899E+000
-2.0892617E-001	3.413220639030123E+000
-2.0774786E-001	3.418062277417441E+000
-2.0686027E-001	3.423251177977628E+000
-2.0577674E-001	3.428093190546403E+000
-2.0472954E-001	3.432456238662633E+000
-2.0361197E-001	3.437088070644279E+000
-2.0291172E-001	3.443201103696119E+000
-2.0189819E-001	3.448400924841714E+000
-2.0074104E-001	3.453001182940270E+000
-1.9967046E-001	3.458404679947868E+000
-1.9879815E-001	3.461697225769349E+000
-1.9769658E-001	3.467480330003625E+000
-1.9668272E-001	3.471938748827341E+000
-1.9577087E-001	3.476462214081394E+000
-1.9476095E-001	3.481876752442780E+000
-1.9397557E-001	3.486480604920821E+000
-1.9273596E-001	3.491050056285335E+000
-1.9164458E-001	3.497702439074168E+000
-1.9086368E-001	3.501577450758333E+000
-1.8970871E-001	3.505910963923839E+000
-1.8883558E-001	3.510439084083934E+000
-1.8779637E-001	3.515199805659371E+000
-1.8689866E-001	3.519052313985664E+000
-1.8559189E-001	3.523525336037693E+000
-1.8483061E-001	3.528382903999756E+000
-1.8375896E-001	3.534059155318467E+000
-1.8291311E-001	3.537733924676616E+000
-1.8179613E-001	3.544025658457378E+000
-1.8084136E-001	3.548416130520696E+000
-1.7969581E-001	3.553112657043471E+000
-1.7882997E-001	3.557165041013995E+000
-1.7785014E-001	3.561998457820337E+000
-1.7689440E-001	3.566983451569020E+000
-1.7565909E-001	3.570899335874444E+000
-1.7474192E-001	3.575818927588443E+000
-1.7379661E-001	3.580232922125752E+000
-1.7296316E-001	3.585917383432388E+000
-1.7172037E-001	3.591217195234783E+000
-1.7071630E-001	3.594534726606476E+000
-1.6982938E-001	3.598431264360741E+000
-1.6889323E-001	3.602820824343652E+000
-1.6772297E-001	3.608685648551685E+000
-1.6689822E-001	3.611407112744118E+000
-1.6578194E-001	3.617414080867420E+000
-1.6502281E-001	3.622261881276444E+000
-1.6381706E-001	3.626293377191931E+000
-1.6288358E-001	3.630690841482666E+000
-1.6184852E-001	3.635894504410238E+000
-1.6064712E-001	3.640978153394460E+000
-1.5969586E-001	3.644933131006027E+000
-1.5886708E-001	3.649386904305882E+000
-1.5772206E-001	3.653654875904905E+000
-1.5698360E-001	3.658452761945904E+000
-1.5576451E-001	3.662661641284288E+000
-1.5478417E-001	3.667839760018910E+000
-1.5373296E-001	3.672310366674712E+000
-1.5288530E-001	3.675620699922248E+000
-1.5170385E-001	3.680096201017864E+000
-1.5072075E-001	3.685669955831994E+000
-1.4976767E-001	3.689033241183674E+000
-1.4873524E-001	3.694346098436249E+000
-1.4787804E-001	3.698836906640608E+000
-1.4694300E-001	3.702808473071016E+000
-1.4575209E-001	3.706592206601748E+000
-1.4470376E-001	3.711911039219956E+000
-1.4378342E-001	3.715617165423003E+000
-1.4260009E-001	3.720832448314745E+000
-1.4171489E-001	3.724069389480150E+000
-1.4078866E-001	3.729093600736807E+000
-1.3981506E-001	3.733991056680679E+000
-1.3886622E-001	3.739121110351007E+000
-1.3773516E-001	3.743163641732313E+000
-1.3691571E-001	3.748383556251188E+000
-1.3592894E-001	3.751727275462585E+000
-1.3476177E-001	3.756767355181566E+000
-1.3382375E-001	3.760726890630195E+000
-1.3267438E-001	3.764987340969469E+000
-1.3182953E-001	3.769694801282013E+000
-1.3097765E-001	3.773127461473152E+000
-1.2991224E-001	3.778083663692215E+000
-1.2899464E-001	3.782582997171988E+000
-1.2766865E-001	3.786457475688714E+000
-1.2689461E-001	3.791699879106897E+000
-1.2584332E-001	3.795558895225877E+000
-1.2490398E-001	3.799768086384837E+000
-1.2360618E-001	3.804590750592801E+000
-1.2268726E-001	3.808348451499594E+000
-1.2193403E-001	3.812685236086624E+000
-1.2095270E-001	3.817235081284124E+000
-1.1974526E-001	3.821988481062448E+000
-1.1884149E-001	3.827220478443440E+000
-1.1798482E-001	3.829817074316550E+000
-1.1664035E-001	3.834398815477350E+000
-1.1591010E-001	3.838885347337030E+000
-1.1476664E-001	3.842546868103526E+000
-1.1379912E-001	3.846402354262491E+000
-1.1284313E-001	3.851415357525923E+000
-1.1176503E-001	3.855036848673123E+000
-1.1102640E-001	3.859590192083949E+000
-1.0984421E-001	3.863387635436617E+000
-1.0891086E-001	3.867883807531101E+000
-1.0798071E-001	3.872086963352658E+000
-1.0670431E-001	3.875475386778513E+000
-1.0570264E-001	3.880144006124269E+000
-1.0465857E-001	3.884762540196053E+000
-1.0395939E-001	3.888662327218938E+000
-1.0270847E-001	3.893015757203102E+000
-1.0178921E-001	3.896599213279387E+000
-1.0079295E-001	3.899843411865060E+000
-9.9850476E-002	3.905139693507453E+000
-9.8841071E-002	3.908630555447100E+000
-9.7849891E-002	3.913750492312289E+000
-9.6833326E-002	3.918365818110694E+000
-9.5895767E-002	3.922426709974264E+000
-9.4907895E-002	3.926977769092268E+000
-9.3798645E-002	3.929514726668188E+000
-9.2818029E-002	3.935663128892593E+000
-9.1680169E-002	3.938560886515532E+000
-9.0715639E-002	3.944251180360325E+000
-8.9882605E-002	3.946615769355375E+000
-8.8797145E-002	3.951663444991468E+000
-8.7906778E-002	3.956227009457116E+000
-8.6775780E-002	3.960717234898500E+000
-8.5839026E-002	3.965015892629283E+000
-8.4877320E-002	3.969330222907047E+000
-8.3846092E-002	3.972351689029608E+000
-8.2786702E-002	3.977077643747059E+000
-8.2086496E-002	3.980876297310530E+000
-8.0880113E-002	3.984017512864526E+000
-8.0013253E-002	3.989034059647494E+000
-7.8812309E-002	3.992720589041703E+000
-7.7833340E-002	3.996567330978536E+000
-7.6861098E-002	3.999896799869983E+000
-7.5868398E-002	4.005158562903048E+000
-7.4831307E-002	4.009485185146310E+000
-7.3832929E-002	4.013532193390784E+000
-7.2785139E-002	4.017674543239437E+000
-7.1886770E-002	4.021883138903874E+000
-7.0852228E-002	4.024311988298074E+000
-6.9830202E-002	4.029324532107080E+000
-6.8885148E-002	4.033090006916140E+000
-6.7894109E-002	4.037745862647341E+000
-6.6939116E-002	4.040229820542871E+000
-6.5883979E-002	4.044347207875077E+000
-6.4961664E-002	4.049041412494788E+000
-6.3925840E-002	4.053993603697528E+000
-6.2661387E-002	4.057324795201815E+000
-6.1884325E-002	4.060713838647906E+000
-6.1006755E-002	4.065159639826504E+000
-5.9792262E-002	4.069984546280963E+000
-5.8676541E-002	4.073152025540676E+000
-5.7796329E-002	4.077150912806957E+000
-5.6957666E-002	4.081796306702813E+000
-5.5910397E-002	4.084154262034971E+000
-5.4678574E-002	4.088267638325590E+000
-5.3823486E-002	4.093704326285270E+000
-5.2804422E-002	4.096803104435949E+000
-5.1898438E-002	4.101272154009642E+000
-5.1042493E-002	4.105801657394132E+000
-4.9831033E-002	4.108632004371387E+000
-4.8884191E-002	4.112757306873149E+000
-4.7790367E-002	4.115995269130764E+000
-4.6927646E-002	4.119864816466958E+000
-4.5896497E-002	4.124433429968718E+000
-4.4719186E-002	4.126372419021727E+000
-4.3836370E-002	4.131725367005341E+000
-4.2827431E-002	4.136194100534468E+000
-4.1924194E-002	4.138989432542417E+000
-4.0840287E-002	4.143838353338424E+000
-3.9655495E-002	4.146961845733514E+000
-3.8820349E-002	4.150476428645623E+000
-3.7973091E-002	4.154924853139859E+000
-3.6719013E-002	4.157376777794615E+000
-3.5876237E-002	4.161739036440878E+000
-3.4694042E-002	4.167243555537851E+000
-3.3834085E-002	4.170742128182340E+000
-3.2769840E-002	4.174762388070434E+000
-3.1772416E-002	4.176822672743545E+000
-3.0850507E-002	4.180583983107866E+000
-2.9710071E-002	4.185871762187915E+000
-2.8792238E-002	4.188070806640170E+000
-2.7881572E-002	4.192369620005280E+000
-2.6974259E-002	4.196105965431999E+000
-2.5612658E-002	4.199605808213889E+000
-2.4775816E-002	4.203534961850558E+000
-2.3903811E-002	4.206642653214617E+000
-2.2826364E-002	4.211080517481893E+000
-2.1891521E-002	4.214550553648575E+000
-2.0831313E-002	4.218359315194476E+000
-1.9950978E-002	4.221638629833876E+000
-1.8898517E-002	4.225936058831124E+000
-1.7821429E-002	4.229262806199214E+000
-1.7019378E-002	4.233220676029177E+000
-1.5988899E-002	4.236326544074373E+000
-1.4784615E-002	4.237445256776283E+000
-1.3961984E-002	4.243498688494725E+000
-1.2825378E-002	4.248430288341854E+000
-1.1829467E-002	4.250274520229411E+000
-1.0994321E-002	4.254974301766453E+000
-9.8321792E-003	4.258215957441564E+000
-8.8144997E-003	4.263036103160289E+000
-8.0124466E-003	4.265179065090642E+000
-6.7625912E-003	4.270668977604565E+000
-5.9289308E-003	4.273981072836461E+000
-5.1222299E-003	4.277042767389439E+000
-3.7257753E-003	4.280595293199573E+000
-2.8679317E-003	4.284357508023568E+000
-1.8737677E-003	4.288139429862653E+000
-6.9001969E-004	4.292637721807857E+000
2.7240228E-004	4.296347692608840E+000
1.2163324E-003	4.298943447832393E+000
2.1860029E-003	4.302440543969460E+000
3.1180903E-003	4.305704754811771E+000
4.0981434E-003	4.309206089828841E+000
5.2124234E-003	4.312178498065038E+000
6.1969068E-003	4.317308924264379E+000
6.8875938E-003	4.321394906959669E+000
6.9639613E-003	4.321903358806267E+000