EC-Lab ASCII FILE
Nb header lines : 63                          

Linear Sweep Voltammetry

Run on channel : 6 (SN 13765)
User : 
Electrode connection : standard
Potential control : Ewe
Ewe ctrl range : min = -2.50 V, max = 2.50 V
Ewe,I filtering : <None>
Safety Limits :
	Do not start on E overload
Channel : Floating
Acquisition started on : 07/17/2026 14:35:34.846
Technique started on : 07/17/2026 14:35:35.843
Loaded Setting File :  C:\Users\EEM-620\Desktop\Wade\abao\20260629\N719_0629-0-1_C06.mpr
Saved on :
	File : N719_0717-k-1_C06.mpr
	Directory : C:\Users\EEM-620\Desktop\Wade\abao\20260717\
	Host : 192.109.209.200
Device : VSP-300 (SN 0025)
Address : 192.109.209.129
EC-LAB for windows v11.62 (software)
Internet server v27.00 (firmware)
Command interpretor v12.02 (firmware)
Electrode material : Au/Pd
Initial state : 
Electrolyte : NaCl (0.2M)
Comments : Fe(CN)63-/Fe(CN)64- 5.10-3 M
Cable : ULC
Reference electrode : SCE Saturated Calomel Electrode (0.241 V)
Electrode surface area : 0.001 cm2
Characteristic mass : 0.001 g
Equivalent Weight : 0.000 g/eq.
Density : 0.000 g/cm3
Volume (V) : 0.001 cm3
Cycle Definition : Charge/Discharge alternance
tR (h:m:s)          0:00:5.0000         
dER/dt (mV/h)       0.0                 
dER (mV)            0                   
dtR (s)             0.0500              
dE/dt               10.000              
dE/dt unit          mV/s                
Ei (V)              -0.800              
vs.                 Ref                 
EL (V)              0.010               
vs.                 Ref                 
record              <I>                 
dI                  0.000               
unit dI             uA                  
tI (s)              0.0000              
step percent        50                  
N                   10                  
E range min (V)     -2.500              
E range max (V)     2.500               
I Range             Auto                
I Range min         Unset               
I Range max         Unset               
I Range init        Unset               
Bandwidth           8                   

Ewe/V	<I>/mA	
-5.7482165E-001	0.000000000000000E+000
-5.7513094E-001	0.000000000000000E+000
-5.7493627E-001	0.000000000000000E+000
-5.7521117E-001	0.000000000000000E+000
-5.7552040E-001	0.000000000000000E+000
-5.7512337E-001	0.000000000000000E+000
-5.7586789E-001	0.000000000000000E+000
-5.7521498E-001	0.000000000000000E+000
-5.7605118E-001	0.000000000000000E+000
-5.7330966E-001	0.000000000000000E+000
-5.7579154E-001	0.000000000000000E+000
-5.7467657E-001	0.000000000000000E+000
-5.7534862E-001	0.000000000000000E+000
-5.7580298E-001	0.000000000000000E+000
-5.7472622E-001	0.000000000000000E+000
-5.7477587E-001	0.000000000000000E+000
-5.7476062E-001	0.000000000000000E+000
-5.7532954E-001	0.000000000000000E+000
-5.7530278E-001	0.000000000000000E+000
-5.7557392E-001	0.000000000000000E+000
-5.7527226E-001	0.000000000000000E+000
-5.7471097E-001	0.000000000000000E+000
-5.7492101E-001	0.000000000000000E+000
-5.7503551E-001	0.000000000000000E+000
-5.7506222E-001	0.000000000000000E+000
-5.7476443E-001	0.000000000000000E+000
-5.7521498E-001	0.000000000000000E+000
-5.7594043E-001	0.000000000000000E+000
-5.7457352E-001	0.000000000000000E+000
-5.7597864E-001	0.000000000000000E+000
-5.7541734E-001	0.000000000000000E+000
-5.7498586E-001	0.000000000000000E+000
-5.7458115E-001	0.000000000000000E+000
-5.7427567E-001	0.000000000000000E+000
-5.7527989E-001	0.000000000000000E+000
-5.7417256E-001	0.000000000000000E+000
-5.7574570E-001	0.000000000000000E+000
-5.7489425E-001	0.000000000000000E+000
-5.7426423E-001	0.000000000000000E+000
-5.7559681E-001	0.000000000000000E+000
-5.7440549E-001	0.000000000000000E+000
-5.7482171E-001	0.000000000000000E+000
-5.7426423E-001	0.000000000000000E+000
-5.7458878E-001	0.000000000000000E+000
-5.7522643E-001	0.000000000000000E+000
-5.7570755E-001	0.000000000000000E+000
-5.7521117E-001	0.000000000000000E+000
-5.7562357E-001	0.000000000000000E+000
-5.7493240E-001	0.000000000000000E+000
-5.7481021E-001	0.000000000000000E+000
-5.7402366E-001	0.000000000000000E+000
-5.7314926E-001	0.000000000000000E+000
-5.7421076E-001	0.000000000000000E+000
-5.7511955E-001	0.000000000000000E+000
-5.7475293E-001	0.000000000000000E+000
-5.7378691E-001	0.000000000000000E+000
-5.7473767E-001	0.000000000000000E+000
-5.7457733E-001	0.000000000000000E+000
-5.7462692E-001	0.000000000000000E+000
-5.7459259E-001	0.000000000000000E+000
-5.7461929E-001	0.000000000000000E+000
-5.8049566E-001	0.000000000000000E+000
-5.7943422E-001	0.000000000000000E+000
-7.8931808E-001	-2.317724710040622E+000
-7.8863990E-001	-2.307990502980015E+000
-7.8763068E-001	-2.293201999255906E+000
-7.8683704E-001	-2.278906740871307E+000
-7.8569192E-001	-2.265564512047511E+000
-7.8473258E-001	-2.252875517363897E+000
-7.8342927E-001	-2.240684496944598E+000
-7.8278106E-001	-2.228472753531396E+000
-7.8166687E-001	-2.216278578120248E+000
-7.8085393E-001	-2.204277286746937E+000
-7.7997726E-001	-2.192820592886864E+000
-7.7886856E-001	-2.181203804939774E+000
-7.7771419E-001	-2.170048204285134E+000
-7.7667809E-001	-2.158456259855512E+000
-7.7587754E-001	-2.147264676045126E+000
-7.7472603E-001	-2.135969835850918E+000
-7.7384079E-001	-2.124539569296221E+000
-7.7272606E-001	-2.113441975129486E+000
-7.7166456E-001	-2.102248172793118E+000
-7.7082306E-001	-2.091432539677161E+000
-7.6974076E-001	-2.080023688441152E+000
-7.6893127E-001	-2.069471536687125E+000
-7.6771700E-001	-2.058527466992036E+000
-7.6692420E-001	-2.046981608702080E+000
-7.6584738E-001	-2.036175192230274E+000
-7.6482415E-001	-2.024940238411054E+000
-7.6399410E-001	-2.013599392440590E+000
-7.6266384E-001	-2.002792852344337E+000
-7.6158112E-001	-1.991680838688323E+000
-7.6082081E-001	-1.980485253311969E+000
-7.5972962E-001	-1.969252486747722E+000
-7.5890988E-001	-1.958445485016227E+000
-7.5776535E-001	-1.947612322315024E+000
-7.5672954E-001	-1.936015869456313E+000
-7.5573081E-001	-1.925357946583134E+000
-7.5486624E-001	-1.913932602162713E+000
-7.5378466E-001	-1.903323413842830E+000
-7.5279140E-001	-1.892321799916253E+000
-7.5182492E-001	-1.881276897534175E+000
-7.5077921E-001	-1.870057967248044E+000
-7.4975753E-001	-1.859166456041521E+000
-7.4873215E-001	-1.848236070738896E+000
-7.4761617E-001	-1.837044430381326E+000
-7.4683738E-001	-1.826288539226411E+000
-7.4559754E-001	-1.815163165330898E+000
-7.4493176E-001	-1.804804379639613E+000
-7.4380499E-001	-1.793283039496998E+000
-7.4284917E-001	-1.782649357928676E+000
-7.4186200E-001	-1.771443796102638E+000
-7.4067760E-001	-1.760224052601384E+000
-7.3990017E-001	-1.749487241084676E+000
-7.3877275E-001	-1.738893688001028E+000
-7.3781884E-001	-1.728079874206475E+000
-7.3675054E-001	-1.717479323338749E+000
-7.3579252E-001	-1.706478912521291E+000
-7.3489976E-001	-1.695174532632027E+000
-7.3366261E-001	-1.684621887173016E+000
-7.3280239E-001	-1.673847154886630E+000
-7.3173481E-001	-1.662910051919802E+000
-7.3077756E-001	-1.651702497685589E+000
-7.2984493E-001	-1.641170025699663E+000
-7.2879350E-001	-1.629803472227014E+000
-7.2779679E-001	-1.619113619680753E+000
-7.2686630E-001	-1.608542137675812E+000
-7.2582108E-001	-1.597615523932433E+000
-7.2481728E-001	-1.586157872720996E+000
-7.2376943E-001	-1.575517413516842E+000
-7.2286224E-001	-1.564841950573125E+000
-7.2185642E-001	-1.553878746512872E+000
-7.2087359E-001	-1.543068690156499E+000
-7.1990287E-001	-1.532352487357301E+000
-7.1869534E-001	-1.521676339898946E+000
-7.1779394E-001	-1.510618288621870E+000
-7.1685261E-001	-1.500209694317330E+000
-7.1583056E-001	-1.489622463920597E+000
-7.1477807E-001	-1.478413077116221E+000
-7.1387237E-001	-1.467687924564988E+000
-7.1274686E-001	-1.456868324152850E+000
-7.1185881E-001	-1.446261645166881E+000
-7.1067965E-001	-1.435478328278770E+000
-7.0991528E-001	-1.424577974610861E+000
-7.0886314E-001	-1.414326243184078E+000
-7.0787019E-001	-1.402995854754145E+000
-7.0673811E-001	-1.392562850343959E+000
-7.0570177E-001	-1.381848111977643E+000
-7.0471221E-001	-1.370732300121474E+000
-7.0383382E-001	-1.359851725445669E+000
-7.0284617E-001	-1.349252424168366E+000
-7.0186156E-001	-1.338388921486007E+000
-7.0080113E-001	-1.327812676634682E+000
-6.9984055E-001	-1.317273147542171E+000
-6.9863188E-001	-1.306421623461781E+000
-6.9769746E-001	-1.294949675589631E+000
-6.9668794E-001	-1.284947905413532E+000
-6.9589835E-001	-1.274269097105218E+000
-6.9473857E-001	-1.263421537915827E+000
-6.9376671E-001	-1.252843227099486E+000
-6.9281572E-001	-1.242083773292876E+000
-6.9176036E-001	-1.231270298421419E+000
-6.9084698E-001	-1.221393672956360E+000
-6.8979228E-001	-1.210456873223894E+000
-6.8883073E-001	-1.199152804911133E+000
-6.8776751E-001	-1.188696415749966E+000
-6.8689573E-001	-1.178121236978757E+000
-6.8583232E-001	-1.167713282974778E+000
-6.8471611E-001	-1.157057797605244E+000
-6.8365705E-001	-1.146137277303055E+000
-6.8263024E-001	-1.135671980265118E+000
-6.8194193E-001	-1.124812934961579E+000
-6.8067813E-001	-1.113875836665915E+000
-6.7985207E-001	-1.103061289285066E+000
-6.7869127E-001	-1.092463335505236E+000
-6.7786479E-001	-1.081969938008488E+000
-6.7666823E-001	-1.071199417114255E+000
-6.7585397E-001	-1.061039221142812E+000
-6.7481506E-001	-1.050203087567178E+000
-6.7379409E-001	-1.039632296810540E+000
-6.7278522E-001	-1.029548872403282E+000
-6.7171335E-001	-1.018538698967963E+000
-6.7085057E-001	-1.008175808936354E+000
-6.6970515E-001	-9.978092399670082E-001
-6.6883492E-001	-9.868066515083633E-001
-6.6766167E-001	-9.767933057414169E-001
-6.6679704E-001	-9.660431546578483E-001
-6.6597188E-001	-9.550318425452318E-001
-6.6479421E-001	-9.447963268216735E-001
-6.6395026E-001	-9.341478554738885E-001
-6.6267222E-001	-9.237039984652267E-001
-6.6183257E-001	-9.133008186981697E-001
-6.6080791E-001	-9.027678115224411E-001
-6.5977919E-001	-8.925190973613013E-001
-6.5865099E-001	-8.822161769619754E-001
-6.5769017E-001	-8.717802891300774E-001
-6.5695643E-001	-8.614778818079678E-001
-6.5567762E-001	-8.500807082238993E-001
-6.5494680E-001	-8.402807461442716E-001
-6.5379411E-001	-8.295071850772278E-001
-6.5290904E-001	-8.189615725239419E-001
-6.5168995E-001	-8.083886144061836E-001
-6.5084392E-001	-7.979943963757776E-001
-6.4984977E-001	-7.877107708266493E-001
-6.4883435E-001	-7.775008833656720E-001
-6.4779967E-001	-7.670403426152177E-001
-6.4672005E-001	-7.566554312490759E-001
-6.4594513E-001	-7.461942110072677E-001
-6.4477098E-001	-7.357129111992080E-001
-6.4386672E-001	-7.257958506406457E-001
-6.4274627E-001	-7.150730876321045E-001
-6.4183992E-001	-7.045918450627440E-001
-6.4084244E-001	-6.944577818805415E-001
-6.3959700E-001	-6.841213512061906E-001
-6.3888133E-001	-6.738429850750229E-001
-6.3793546E-001	-6.638405863885506E-001
-6.3683534E-001	-6.531630623997291E-001
-6.3598126E-001	-6.429078436146174E-001
-6.3493890E-001	-6.323644062159239E-001
-6.3379228E-001	-6.221812931491069E-001
-6.3275743E-001	-6.118710225241006E-001
-6.3191259E-001	-6.014713659468599E-001
-6.3081110E-001	-5.910250138892899E-001
-6.2987310E-001	-5.812242435360400E-001
-6.2879950E-001	-5.701910286313945E-001
-6.2773246E-001	-5.605517506867805E-001
-6.2715280E-001	-5.497944484016397E-001
-6.2588394E-001	-5.393347718026722E-001
-6.2478673E-001	-5.293058294251010E-001
-6.2384677E-001	-5.189065240599486E-001
-6.2280554E-001	-5.091112161180291E-001
-6.2190902E-001	-4.982712662744309E-001
-6.2096673E-001	-4.883455572718813E-001
-6.1982614E-001	-4.781847624793296E-001
-6.1887175E-001	-4.682850408609252E-001
-6.1783981E-001	-4.576526406324568E-001
-6.1671227E-001	-4.466406857852938E-001
-6.1556315E-001	-4.359398773974844E-001
-6.1437881E-001	-4.253949701372033E-001
-6.1303133E-001	-4.153938668055650E-001
-6.1231661E-001	-4.052375741992815E-001
-6.1158699E-001	-3.949285419504200E-001
-6.1048341E-001	-3.849228775059750E-001
-6.0975242E-001	-3.749479706295666E-001
-6.0859859E-001	-3.647236709529968E-001
-6.0757029E-001	-3.548224348988809E-001
-6.0636795E-001	-3.445231121171419E-001
-6.0550517E-001	-3.344499159312475E-001
-6.0471690E-001	-3.243943503195497E-001
-6.0360765E-001	-3.142018009878761E-001
-6.0268962E-001	-3.041164540789196E-001
-6.0168755E-001	-2.941138182801226E-001
-6.0005558E-001	-2.840401018107226E-001
-5.9954458E-001	-2.740927025054898E-001
-5.9837431E-001	-2.639594745856741E-001
-5.9769177E-001	-2.538892343612793E-001
-5.9667349E-001	-2.440900048585959E-001
-5.9562033E-001	-2.336664108766437E-001
-5.9421921E-001	-2.239958574437591E-001
-5.9372956E-001	-2.139633708047091E-001
-5.9244025E-001	-2.037796517489130E-001
-5.9131998E-001	-1.933703069543635E-001
-5.9032601E-001	-1.837880999988144E-001
-5.8960497E-001	-1.737915179833949E-001
-5.8811903E-001	-1.638971439700709E-001
-5.8791769E-001	-1.538227917281558E-001
-5.8663827E-001	-1.442528356714445E-001
-5.8533293E-001	-1.340371373247494E-001
-5.8437514E-001	-1.241884716717458E-001
-5.8352631E-001	-1.143755265847806E-001
-5.8262998E-001	-1.046103859768694E-001
-5.8156747E-001	-9.462987991153371E-002
-5.8023924E-001	-8.464492029097387E-002
-5.7953423E-001	-7.469785147070618E-002
-5.7849216E-001	-6.522113650336836E-002
-5.7782066E-001	-5.487615225353736E-002
-5.7637900E-001	-4.515363729593391E-002
-5.7530445E-001	-3.387913684274158E-002
-5.7428956E-001	-2.281197596177531E-002
-5.7318461E-001	-1.279457138217466E-002
-5.7226616E-001	-2.836173699258489E-003
-5.7137090E-001	6.913674311902124E-003
-5.7030028E-001	1.676195355442667E-002
-5.6928337E-001	2.666500082452106E-002
-5.6838673E-001	3.635230403462497E-002
-5.6726772E-001	4.626623088798792E-002
-5.6627733E-001	5.610241606417621E-002
-5.6509942E-001	6.561561170275576E-002
-5.6419456E-001	7.568164039341285E-002
-5.6338054E-001	8.543473557155212E-002
-5.6195968E-001	9.520214033761509E-002
-5.6103724E-001	1.051207744445608E-001
-5.5985057E-001	1.172603406606896E-001
-5.5922669E-001	1.267069383462704E-001
-5.5779386E-001	1.366707205048039E-001
-5.5720639E-001	1.459890714915537E-001
-5.5612886E-001	1.558541100083102E-001
-5.5512416E-001	1.653882124875157E-001
-5.5368000E-001	1.751329211725130E-001
-5.5309337E-001	1.844568308088110E-001
-5.5219865E-001	1.941919227096220E-001
-5.5058473E-001	2.039937732258332E-001
-5.5007797E-001	2.138214171844401E-001
-5.4883409E-001	2.228798059125747E-001
-5.4795820E-001	2.324174646702072E-001
-5.4702950E-001	2.420746866904580E-001
-5.4557943E-001	2.517449773365144E-001
-5.4507852E-001	2.610079696679892E-001
-5.4407758E-001	2.705454855329474E-001
-5.4273647E-001	2.800918823039097E-001
-5.4176986E-001	2.899079402886260E-001
-5.4113835E-001	2.991060913298971E-001
-5.3971857E-001	3.083527176123528E-001
-5.3925014E-001	3.183429461315352E-001
-5.3771544E-001	3.276745074049199E-001
-5.3655386E-001	3.370573914575354E-001
-5.3597915E-001	3.466687771962140E-001
-5.3443444E-001	3.557225368848016E-001
-5.3376448E-001	3.656750777946431E-001
-5.3264469E-001	3.748207784223307E-001
-5.3205764E-001	3.845372106534999E-001
-5.3110099E-001	3.939129449018310E-001
-5.2967882E-001	4.034536419505321E-001
-5.2875113E-001	4.124213787554585E-001
-5.2810168E-001	4.217694520452886E-001
-5.2675903E-001	4.311134551686273E-001
-5.2604288E-001	4.407707591437617E-001
-5.2528852E-001	4.497211684385753E-001
-5.2386183E-001	4.592373030329178E-001
-5.2279311E-001	4.686352194597330E-001
-5.2187884E-001	4.777571895038313E-001
-5.2100617E-001	4.871242825907682E-001
-5.1963699E-001	4.959878350861573E-001
-5.1869291E-001	5.056475600296704E-001
-5.1810235E-001	5.147303887815364E-001
-5.1663262E-001	5.237727184600764E-001
-5.1599377E-001	5.332276716966309E-001
-5.1516777E-001	5.422860902768614E-001
-5.1398134E-001	5.517250785204837E-001
-5.1287192E-001	5.607798504470658E-001
-5.1162273E-001	5.695268901547887E-001
-5.1063687E-001	5.791250280842313E-001
-5.0996512E-001	5.882388813490103E-001
-5.0870317E-001	5.974543108432381E-001
-5.0824225E-001	6.068310203351639E-001
-5.0708765E-001	6.154499513407545E-001
-5.0636131E-001	6.246690565910153E-001
-5.0482488E-001	6.339962601109796E-001
-5.0410193E-001	6.426740796477697E-001
-5.0296563E-001	6.520155813747097E-001
-5.0176513E-001	6.609139346552100E-001
-5.0075036E-001	6.700980625356796E-001
-4.9986714E-001	6.791578967782321E-001
-4.9893811E-001	6.877013905732738E-001
-4.9765876E-001	6.963291618007208E-001
-4.9709940E-001	7.057293384917607E-001
-4.9557817E-001	7.143369984847543E-001
-4.9513292E-001	7.236365851297801E-001
-4.9387333E-001	7.325280655727333E-001
-4.9272978E-001	7.413454847755308E-001
-4.9195966E-001	7.506441360440590E-001
-4.9082169E-001	7.595900643478934E-001
-4.8952156E-001	7.682984107070503E-001
-4.8915163E-001	7.773629179017121E-001
-4.8811769E-001	7.857469345132528E-001
-4.8680139E-001	7.952308918314959E-001
-4.8587814E-001	8.037176981501233E-001
-4.8506007E-001	8.127224841327596E-001
-4.8385096E-001	8.215352788015640E-001
-4.8288938E-001	8.302168086315138E-001
-4.8145345E-001	8.391386695482126E-001
-4.8125264E-001	8.476891303551302E-001
-4.7990581E-001	8.566717934553232E-001
-4.7887406E-001	8.650728442050797E-001
-4.7781667E-001	8.737450617552422E-001
-4.7675085E-001	8.827603251017919E-001
-4.7589087E-001	8.915577587430121E-001
-4.7512242E-001	9.002474945867434E-001
-4.7382456E-001	9.093146142032396E-001
-4.7308147E-001	9.173703528940713E-001
-4.7170773E-001	9.263119393958625E-001
-4.7084841E-001	9.342178883100019E-001
-4.6973893E-001	9.431336036434885E-001
-4.6927527E-001	9.515581664579784E-001
-4.6786287E-001	9.604504939030747E-001
-4.6704713E-001	9.689783344218359E-001
-4.6588680E-001	9.775631674737824E-001
-4.6492240E-001	9.858364773293324E-001
-4.6366295E-001	9.944232670532418E-001
-4.6302921E-001	1.003077763236234E+000
-4.6224812E-001	1.011269927024841E+000
-4.6082664E-001	1.020132893314471E+000
-4.5953137E-001	1.028430327635114E+000
-4.5907000E-001	1.037070546989089E+000
-4.5759726E-001	1.045320870630552E+000
-4.5667300E-001	1.053926190292390E+000
-4.5575768E-001	1.061906362625736E+000
-4.5509368E-001	1.070334942252543E+000
-4.5390749E-001	1.078774793142522E+000
-4.5303252E-001	1.086751927521108E+000
-4.5144448E-001	1.096605681103393E+000
-4.5088086E-001	1.106147174481997E+000
-4.4978681E-001	1.114610783021810E+000
-4.4858947E-001	1.123033604688111E+000
-4.4784686E-001	1.131845264668565E+000
-4.4663793E-001	1.139619444255473E+000
-4.4578600E-001	1.148404329739233E+000
-4.4471908E-001	1.156475571383126E+000
-4.4363609E-001	1.164424797864976E+000
-4.4276297E-001	1.172885803298824E+000
-4.4186127E-001	1.180870272779039E+000
-4.4087312E-001	1.189526096400289E+000
-4.3973246E-001	1.197630288424318E+000
-4.3870345E-001	1.205585103464335E+000
-4.3776605E-001	1.213926797939673E+000
-4.3662566E-001	1.221936800965555E+000
-4.3588361E-001	1.230298124890808E+000
-4.3475682E-001	1.238379451687685E+000
-4.3379477E-001	1.245887402415376E+000
-4.3271849E-001	1.254497994703272E+000
-4.3193614E-001	1.261949617001743E+000
-4.3049505E-001	1.270258061968506E+000
-4.2970693E-001	1.278079642189878E+000
-4.2885205E-001	1.285768236413045E+000
-4.2768255E-001	1.294118505719551E+000
-4.2682603E-001	1.302007223720906E+000
-4.2555049E-001	1.310115058113023E+000
-4.2473745E-001	1.318194835623203E+000
-4.2363244E-001	1.326848858484516E+000
-4.2286518E-001	1.334325690926226E+000
-4.2167255E-001	1.341765139329933E+000
-4.2064545E-001	1.349903210445685E+000
-4.1994533E-001	1.357538064153260E+000
-4.1873822E-001	1.365649335914184E+000
-4.1773185E-001	1.373486531691421E+000
-4.1668636E-001	1.381421114040819E+000
-4.1570526E-001	1.388839337560864E+000
-4.1468957E-001	1.396976768280624E+000
-4.1355702E-001	1.404663462349220E+000
-4.1275012E-001	1.412085238154290E+000
-4.1189417E-001	1.419471495681335E+000
-4.1061267E-001	1.428019529160747E+000
-4.0967128E-001	1.435309363184146E+000
-4.0889448E-001	1.443869406426401E+000
-4.0776405E-001	1.450730728138474E+000
-4.0653476E-001	1.458788820438912E+000
-4.0559578E-001	1.466555560610299E+000
-4.0461180E-001	1.474099136061135E+000
-4.0383881E-001	1.481519373478712E+000
-4.0284663E-001	1.489557795451908E+000
-4.0168723E-001	1.497366258115676E+000
-4.0086183E-001	1.504768322187445E+000
-3.9961573E-001	1.512243204081894E+000
-3.9883751E-001	1.519861465526950E+000
-3.9784175E-001	1.526685145304164E+000
-3.9658621E-001	1.534374446337665E+000
-3.9562610E-001	1.542000344092099E+000
-3.9469713E-001	1.550079395285643E+000
-3.9383322E-001	1.557560154271350E+000
-3.9277089E-001	1.565044128232525E+000
-3.9182037E-001	1.572391890227220E+000
-3.9069200E-001	1.580021656773713E+000
-3.8965195E-001	1.587089914966510E+000
-3.8875851E-001	1.593886582237911E+000
-3.8763890E-001	1.601984601053928E+000
-3.8660684E-001	1.609118846831500E+000
-3.8579458E-001	1.616653489326200E+000
-3.8475564E-001	1.624152219957779E+000
-3.8388482E-001	1.630607653823166E+000
-3.8273594E-001	1.639020717950253E+000
-3.8184866E-001	1.645712798944224E+000
-3.8057855E-001	1.653016025954358E+000
-3.7992319E-001	1.660694282363963E+000
-3.7884638E-001	1.667867360015705E+000
-3.7779972E-001	1.674613250110768E+000
-3.7674463E-001	1.681317858397954E+000
-3.7565938E-001	1.689581268915429E+000
-3.7483186E-001	1.696392868362157E+000
-3.7373179E-001	1.704017002549435E+000
-3.7288967E-001	1.710595320772242E+000
-3.7163025E-001	1.718435598731944E+000
-3.7082291E-001	1.725851379886819E+000
-3.6962032E-001	1.732951930687204E+000
-3.6881357E-001	1.739923912341951E+000
-3.6782658E-001	1.746928028210441E+000
-3.6678094E-001	1.754512062250647E+000
-3.6591536E-001	1.761011157598766E+000
-3.6465359E-001	1.768146229562927E+000
-3.6351025E-001	1.774971556842054E+000
-3.6280233E-001	1.781594144525353E+000
-3.6173069E-001	1.787917298299291E+000
-3.6083975E-001	1.795884903211444E+000
-3.5973138E-001	1.803054793013477E+000
-3.5877359E-001	1.809587717608179E+000
-3.5785729E-001	1.816835798802931E+000
-3.5684919E-001	1.823743533481057E+000
-3.5571775E-001	1.830676955333956E+000
-3.5461998E-001	1.837410439219739E+000
-3.5388517E-001	1.844440182877907E+000
-3.5279757E-001	1.851438034878596E+000
-3.5168901E-001	1.858700977155463E+000
-3.5053864E-001	1.865484934714106E+000
-3.4958500E-001	1.872032697844762E+000
-3.4870920E-001	1.878452254114325E+000
-3.4758580E-001	1.885320600260179E+000
-3.4665433E-001	1.893549425428191E+000
-3.4555361E-001	1.899493855182772E+000
-3.4479147E-001	1.906612972142520E+000
-3.4377071E-001	1.913122039294279E+000
-3.4276053E-001	1.919098236218639E+000
-3.4171614E-001	1.926591115857264E+000
-3.4086901E-001	1.933081942575946E+000
-3.3977443E-001	1.939862920178307E+000
-3.3876884E-001	1.946959476235111E+000
-3.3759442E-001	1.953721470027055E+000
-3.3667949E-001	1.959801964737757E+000
-3.3570504E-001	1.967319798106505E+000
-3.3480406E-001	1.973486748282557E+000
-3.3374617E-001	1.980217228885053E+000
-3.3274016E-001	1.986845072768517E+000
-3.3188754E-001	1.993114638107794E+000
-3.3076885E-001	1.999908992405675E+000
-3.2963917E-001	2.006398968674528E+000
-3.2864559E-001	2.013555120538790E+000
-3.2773367E-001	2.020226535188666E+000
-3.2678035E-001	2.026830865277180E+000
-3.2574642E-001	2.032870526391046E+000
-3.2464316E-001	2.039103266320324E+000
-3.2370299E-001	2.046165171320791E+000
-3.2286960E-001	2.052586253318509E+000
-3.2184467E-001	2.058925086742455E+000
-3.2075402E-001	2.065630000774512E+000
-3.1973746E-001	2.072245334861456E+000
-3.1883758E-001	2.078868208960312E+000
-3.1741112E-001	2.085232510058969E+000
-3.1683055E-001	2.092270453996541E+000
-3.1570157E-001	2.098170744048232E+000
-3.1474954E-001	2.104535397004206E+000
-3.1362227E-001	2.110435218516932E+000
-3.1276637E-001	2.117188678847421E+000
-3.1177381E-001	2.123757820714403E+000
-3.1076455E-001	2.130612093731497E+000
-3.0951127E-001	2.135990668778071E+000
-3.0877203E-001	2.142570529271055E+000
-3.0785918E-001	2.149142101452256E+000
-3.0676234E-001	2.155385925538010E+000
-3.0573815E-001	2.161302753620674E+000
-3.0481541E-001	2.167350940574288E+000
-3.0371743E-001	2.174353369960090E+000
-3.0289736E-001	2.180844623820938E+000
-3.0189079E-001	2.186767099080267E+000
-3.0078119E-001	2.193227332499287E+000
-2.9974630E-001	2.199307231027445E+000
-2.9868135E-001	2.205579769280216E+000
-2.9775798E-001	2.212954703580451E+000
-2.9687974E-001	2.218031010496617E+000
-2.9564539E-001	2.223897265891239E+000
-2.9471901E-001	2.230658568993768E+000
-2.9380950E-001	2.236125900731075E+000
-2.9292843E-001	2.242892793759154E+000
-2.9160246E-001	2.249047356482627E+000
-2.9074162E-001	2.254855363457288E+000
-2.8984028E-001	2.261326717833668E+000
-2.8866476E-001	2.267390648834684E+000
-2.8768656E-001	2.273897372462134E+000
-2.8670973E-001	2.279578697350299E+000
-2.8574905E-001	2.285685723329621E+000
-2.8501606E-001	2.291804523655660E+000
-2.8385299E-001	2.298736879119168E+000
-2.8284460E-001	2.303888145273746E+000
-2.8182080E-001	2.310218389387490E+000
-2.8085348E-001	2.316457997041730E+000
-2.7968302E-001	2.322521393049993E+000
-2.7873307E-001	2.328214616135318E+000
-2.7765822E-001	2.333077874052556E+000
-2.7675071E-001	2.339917583322077E+000
-2.7586830E-001	2.345732635370005E+000
-2.7490535E-001	2.352204519927170E+000
-2.7395532E-001	2.357778766640919E+000
-2.7286968E-001	2.363461290520647E+000
-2.7162126E-001	2.370037951338418E+000
-2.7101967E-001	2.376055064024747E+000
-2.6962242E-001	2.382396498488056E+000
-2.6884261E-001	2.387898842240688E+000
-2.6773152E-001	2.394872126479946E+000
-2.6682127E-001	2.399543489846916E+000
-2.6580113E-001	2.406348395054842E+000
-2.6462638E-001	2.411504430075489E+000
-2.6362768E-001	2.417828155054131E+000
-2.6286232E-001	2.423146461998979E+000
-2.6176971E-001	2.429134773711368E+000
-2.6078999E-001	2.434524957236235E+000
-2.5982106E-001	2.440805247536414E+000
-2.5885400E-001	2.446500521291188E+000
-2.5781658E-001	2.452555857495604E+000
-2.5681311E-001	2.458301965009273E+000
-2.5565764E-001	2.464448133000609E+000
-2.5488824E-001	2.470276138917351E+000
-2.5391185E-001	2.477098269595043E+000
-2.5271627E-001	2.482078853402882E+000
-2.5185141E-001	2.488376599770996E+000
-2.5084382E-001	2.493133313401975E+000
-2.4960971E-001	2.499317872576592E+000
-2.4882820E-001	2.504785830775891E+000
-2.4774252E-001	2.511040883207759E+000
-2.4699447E-001	2.516191476754904E+000
-2.4570018E-001	2.522597355975034E+000
-2.4484551E-001	2.528127427454344E+000
-2.4379800E-001	2.533720204204489E+000
-2.4288927E-001	2.539332325811735E+000
-2.4160103E-001	2.544668868735982E+000
-2.4086724E-001	2.550069541489384E+000
-2.3983251E-001	2.555263570061442E+000
-2.3876224E-001	2.561941424469310E+000
-2.3783979E-001	2.567177332109875E+000
-2.3691000E-001	2.572822874618907E+000
-2.3590599E-001	2.577950399646170E+000
-2.3490015E-001	2.584713998768073E+000
-2.3391098E-001	2.589714566038712E+000
-2.3289971E-001	2.595768412687747E+000
-2.3174325E-001	2.601213380970329E+000
-2.3068558E-001	2.606927171901424E+000
-2.2976682E-001	2.612560013331194E+000
-2.2862348E-001	2.617830727387350E+000
-2.2756031E-001	2.622915459175896E+000
-2.2687832E-001	2.628870692386048E+000
-2.2576718E-001	2.634461610129584E+000
-2.2470820E-001	2.639749800978343E+000
-2.2390218E-001	2.645206139871362E+000
-2.2281988E-001	2.650953282084735E+000
-2.2175215E-001	2.655878473211160E+000
-2.2086832E-001	2.660631414640841E+000
-2.1970692E-001	2.667166704105012E+000
-2.1875358E-001	2.672949263455603E+000
-2.1789366E-001	2.678771056786736E+000
-2.1680161E-001	2.684462296190087E+000
-2.1571831E-001	2.689315012773420E+000
-2.1474609E-001	2.695727603579005E+000
-2.1370299E-001	2.700641676309314E+000
-2.1278352E-001	2.706847145325614E+000
-2.1174641E-001	2.711865937268293E+000
-2.1101728E-001	2.717128072552889E+000
-2.0972566E-001	2.723104285421190E+000
-2.0884304E-001	2.728413829648947E+000
-2.0787098E-001	2.733752034325830E+000
-2.0680276E-001	2.739148358228034E+000
-2.0579179E-001	2.744097719589869E+000
-2.0482358E-001	2.749573731530830E+000
-2.0380862E-001	2.754119098462443E+000
-2.0257001E-001	2.759864136300717E+000
-2.0180392E-001	2.765954890663181E+000
-2.0077688E-001	2.770363529523220E+000
-1.9987603E-001	2.775745833131410E+000
-1.9875722E-001	2.781705858530819E+000
-1.9776765E-001	2.786206527992533E+000
-1.9683592E-001	2.791683900240280E+000
-1.9587547E-001	2.797790212211780E+000
-1.9467101E-001	2.802724439788747E+000
-1.9377233E-001	2.808829189776809E+000
-1.9290145E-001	2.814585896553821E+000
-1.9182000E-001	2.818838705067279E+000
-1.9085707E-001	2.824234550505260E+000
-1.8997981E-001	2.829352631337120E+000
-1.8868454E-001	2.835389552017055E+000
-1.8763579E-001	2.839797750343362E+000
-1.8656453E-001	2.844987011342134E+000
-1.8576507E-001	2.850060637521928E+000
-1.8486285E-001	2.854853709538773E+000
-1.8381284E-001	2.861484423555702E+000
-1.8278474E-001	2.864893354633978E+000
-1.8181798E-001	2.870883031023883E+000
-1.8062371E-001	2.876475726012842E+000
-1.7968194E-001	2.881553876384034E+000
-1.7900117E-001	2.886792525925031E+000
-1.7779477E-001	2.891046661193727E+000
-1.7679867E-001	2.897412445202463E+000
-1.7562069E-001	2.902121272903909E+000
-1.7476907E-001	2.908083815651743E+000
-1.7367974E-001	2.913277034682245E+000
-1.7276651E-001	2.917998047338589E+000
-1.7183462E-001	2.923019589831437E+000
-1.7075810E-001	2.928305571001989E+000
-1.6969405E-001	2.933082331661825E+000
-1.6878217E-001	2.938713912301594E+000
-1.6780336E-001	2.943902499697835E+000
-1.6652019E-001	2.948582879923014E+000
-1.6604756E-001	2.953644410235540E+000
-1.6477546E-001	2.959041679071049E+000
-1.6385397E-001	2.963490736705286E+000
-1.6283034E-001	2.969174967224234E+000
-1.6175115E-001	2.973594006288938E+000
-1.6074944E-001	2.976908219893380E+000
-1.5980278E-001	2.980122976832909E+000
-1.5876462E-001	2.983247417818617E+000
-1.5778887E-001	2.988695952887284E+000
-1.5670358E-001	2.992653687519052E+000
-1.5569197E-001	2.998873051393918E+000
-1.5489274E-001	3.004153903914393E+000
-1.5383372E-001	3.009067893304206E+000
-1.5265897E-001	3.014213902254902E+000
-1.5174109E-001	3.020451812492338E+000
-1.5068723E-001	3.028510837643230E+000
-1.4969340E-001	3.033179837796411E+000
-1.4887865E-001	3.036494826241103E+000
-1.4781758E-001	3.041641254667878E+000
-1.4684576E-001	3.046639170664665E+000
-1.4583014E-001	3.050958073801468E+000
-1.4506629E-001	3.055462459999106E+000
-1.4388621E-001	3.061186285913786E+000
-1.4308268E-001	3.065232610536945E+000
-1.4172378E-001	3.070189496157356E+000
-1.4073373E-001	3.075889622532934E+000
-1.3981465E-001	3.080800423467601E+000
-1.3875824E-001	3.085954603773573E+000
-1.3774310E-001	3.090382701380548E+000
-1.3676128E-001	3.095751118604781E+000
-1.3580124E-001	3.100797931844806E+000
-1.3479911E-001	3.106115490198135E+000
-1.3387212E-001	3.111333162420333E+000
-1.3277854E-001	3.117325749459052E+000
-1.3170096E-001	3.122181659771351E+000
-1.3068701E-001	3.126801525553070E+000
-1.2984188E-001	3.131755229645663E+000
-1.2875368E-001	3.135922785710406E+000
-1.2784640E-001	3.140704035207065E+000
-1.2682615E-001	3.145629554093787E+000
-1.2584944E-001	3.150568784938912E+000
-1.2498629E-001	3.156202410658210E+000
-1.2370458E-001	3.161066831622819E+000
-1.2256740E-001	3.166415093121714E+000
-1.2181613E-001	3.173621670439513E+000
-1.2097327E-001	3.178010541531776E+000
-1.1987827E-001	3.182488480099916E+000
-1.1871178E-001	3.187733538377387E+000
-1.1790507E-001	3.191847914898830E+000
-1.1693055E-001	3.196711274208841E+000
-1.1587904E-001	3.201553834879093E+000
-1.1489138E-001	3.206796006472018E+000
-1.1379147E-001	3.210878007941787E+000
-1.1269553E-001	3.216376941596863E+000
-1.1191395E-001	3.221261261237999E+000
-1.1074639E-001	3.226524447953253E+000
-1.0986140E-001	3.231149077223506E+000
-1.0893122E-001	3.236034768047162E+000
-1.0803972E-001	3.241126515977697E+000
-1.0693214E-001	3.245687635408515E+000
-1.0588294E-001	3.250765658087190E+000
-1.0489193E-001	3.254356297766350E+000
-1.0405356E-001	3.260093165216613E+000
-1.0290468E-001	3.263905736031354E+000
-1.0167933E-001	3.268473203441435E+000
-1.0087759E-001	3.273732550166272E+000
-9.9727012E-002	3.278572179101118E+000
-9.8834224E-002	3.282854887506822E+000
-9.7811289E-002	3.288169003747129E+000
-9.6881717E-002	3.291746946469381E+000
-9.5769979E-002	3.298044047421882E+000
-9.4765559E-002	3.301896479394692E+000
-9.3898237E-002	3.305573568381504E+000
-9.2832439E-002	3.310592558648835E+000
-9.1876172E-002	3.315727568886899E+000
-9.0817936E-002	3.320221938371532E+000
-8.9906357E-002	3.326254208882645E+000
-8.8781446E-002	3.329651899359845E+000
-8.7868556E-002	3.334881934986669E+000
-8.6842172E-002	3.339432774870485E+000
-8.5920483E-002	3.342898225894672E+000
-8.4750347E-002	3.348049149836354E+000
-8.3858810E-002	3.352774218828600E+000
-8.2937948E-002	3.357744255124445E+000
-8.1842758E-002	3.361689394822825E+000
-8.0766208E-002	3.366435406384639E+000
-7.9770878E-002	3.371551367876563E+000
-7.8809127E-002	3.375906331671608E+000
-7.7793889E-002	3.380371681518028E+000
-7.6719016E-002	3.384345074206101E+000
-7.5711429E-002	3.389236823276228E+000
-7.4856132E-002	3.393263705902640E+000
-7.3946252E-002	3.397755130800789E+000
-7.2899476E-002	3.401637494012157E+000
-7.1661070E-002	3.407602538665139E+000
-7.0955113E-002	3.412944723058622E+000
-6.9807932E-002	3.417078030882046E+000
-6.8624504E-002	3.420980380085396E+000
-6.7933358E-002	3.425333544060035E+000
-6.6759653E-002	3.429369898857889E+000
-6.5585725E-002	3.433248736181456E+000
-6.4668290E-002	3.437548073905475E+000
-6.3979723E-002	3.442554919256100E+000
-6.2666073E-002	3.447528859194545E+000
-6.1718021E-002	3.451488882855131E+000
-6.0900271E-002	3.456078123163309E+000
-5.9826568E-002	3.460535147809900E+000
-5.8995157E-002	3.464160459461029E+000
-5.7961129E-002	3.468155114634111E+000
-5.6759536E-002	3.474173331702204E+000
-5.6039795E-002	3.477684415049026E+000
-5.4853279E-002	3.482496612259510E+000
-5.3853609E-002	3.486312207248481E+000
-5.2909218E-002	3.492022636312029E+000
-5.1957671E-002	3.495355276451328E+000
-5.0947461E-002	3.500636122844842E+000
-4.9789879E-002	3.503607622451256E+000
-4.8846792E-002	3.509977161862182E+000
-4.7850400E-002	3.513460237118920E+000
-4.6725910E-002	3.517270158286451E+000
-4.5988981E-002	3.521116967386475E+000
-4.4850919E-002	3.525609713461675E+000
-4.3849450E-002	3.530064272768868E+000
-4.2878136E-002	3.535356660683945E+000
-4.1830014E-002	3.540005471971300E+000
-4.0743656E-002	3.543020250079667E+000
-3.9763682E-002	3.547372702095245E+000
-3.8916655E-002	3.551672069010877E+000
-3.7899170E-002	3.556196529178592E+000
-3.7022777E-002	3.559915141926879E+000
-3.6030237E-002	3.563888234672724E+000
-3.4728572E-002	3.568765749637393E+000
-3.3788476E-002	3.572796120135874E+000
-3.3014636E-002	3.576460892403560E+000
-3.1931937E-002	3.580543978250752E+000
-3.0917328E-002	3.584787394161577E+000
-2.9732125E-002	3.589374153214571E+000
-2.8940938E-002	3.593060538724622E+000
-2.7642295E-002	3.598980850091696E+000
-2.6968170E-002	3.602157007704818E+000
-2.5906667E-002	3.606704607605948E+000
-2.4911152E-002	3.610490691882589E+000
-2.3875186E-002	3.614870320328010E+000
-2.2820212E-002	3.619066793609555E+000
-2.1852700E-002	3.622500287713827E+000
-2.0789180E-002	3.626796271700195E+000
-1.9753486E-002	3.630505909522391E+000
-1.8723205E-002	3.634442549697290E+000
-1.7915828E-002	3.638946750097803E+000
-1.6804067E-002	3.642394462669344E+000
-1.5770584E-002	3.646234350557151E+000
-1.4837011E-002	3.650902671946426E+000
-1.3893680E-002	3.656122132583903E+000
-1.3023330E-002	3.659802358558679E+000
-1.1963744E-002	3.664115579039972E+000
-1.0805529E-002	3.668535480344758E+000
-1.0024532E-002	3.672393778538568E+000
-9.0166572E-003	3.675444466648273E+000
-7.8304410E-003	3.679982229515367E+000
-6.6722250E-003	3.683762546874668E+000
-5.7305912E-003	3.687933296517095E+000
-4.8704734E-003	3.692144766676947E+000
-4.0030261E-003	3.696137331702097E+000
-2.9521466E-003	3.699703094032088E+000
-1.6320843E-003	3.704346836602614E+000
-8.1072026E-004	3.708016188056391E+000
3.7676896E-004	3.712295770093252E+000
1.3742006E-003	3.715230454736186E+000
2.2763691E-003	3.719734391680465E+000
3.2440939E-003	3.724204666636609E+000
4.1445452E-003	3.726875497125203E+000
5.2703340E-003	3.732112404372985E+000
6.0834186E-003	3.735971512066001E+000
6.7520449E-003	3.738929443169326E+000
6.4790379E-003	3.739940469915211E+000