EC-Lab ASCII FILE
Nb header lines : 63                          

Linear Sweep Voltammetry

Run on channel : 6 (SN 13765)
User : 
Electrode connection : standard
Potential control : Ewe
Ewe ctrl range : min = -2.50 V, max = 2.50 V
Ewe,I filtering : <None>
Safety Limits :
	Do not start on E overload
Channel : Floating
Acquisition started on : 07/17/2026 15:17:54.446
Technique started on : 07/17/2026 15:17:55.443
Loaded Setting File :  C:\Users\EEM-620\Desktop\Wade\abao\20260629\N719_0629-0-1_C06.mpr
Saved on :
	File : N719_0717-e-1_C06.mpr
	Directory : C:\Users\EEM-620\Desktop\Wade\abao\20260717\
	Host : 192.109.209.200
Device : VSP-300 (SN 0025)
Address : 192.109.209.129
EC-LAB for windows v11.62 (software)
Internet server v27.00 (firmware)
Command interpretor v12.02 (firmware)
Electrode material : Au/Pd
Initial state : 
Electrolyte : NaCl (0.2M)
Comments : Fe(CN)63-/Fe(CN)64- 5.10-3 M
Cable : ULC
Reference electrode : SCE Saturated Calomel Electrode (0.241 V)
Electrode surface area : 0.001 cm2
Characteristic mass : 0.001 g
Equivalent Weight : 0.000 g/eq.
Density : 0.000 g/cm3
Volume (V) : 0.001 cm3
Cycle Definition : Charge/Discharge alternance
tR (h:m:s)          0:00:5.0000         
dER/dt (mV/h)       0.0                 
dER (mV)            0                   
dtR (s)             0.0500              
dE/dt               10.000              
dE/dt unit          mV/s                
Ei (V)              -0.800              
vs.                 Ref                 
EL (V)              0.010               
vs.                 Ref                 
record              <I>                 
dI                  0.000               
unit dI             uA                  
tI (s)              0.0000              
step percent        50                  
N                   10                  
E range min (V)     -2.500              
E range max (V)     2.500               
I Range             Auto                
I Range min         Unset               
I Range max         Unset               
I Range init        Unset               
Bandwidth           8                   

Ewe/V	<I>/mA	
-5.5907887E-001	0.000000000000000E+000
-5.5884975E-001	0.000000000000000E+000
-5.5889940E-001	0.000000000000000E+000
-5.5779976E-001	0.000000000000000E+000
-5.5888796E-001	0.000000000000000E+000
-5.5875051E-001	0.000000000000000E+000
-5.5773485E-001	0.000000000000000E+000
-5.5749428E-001	0.000000000000000E+000
-5.5844504E-001	0.000000000000000E+000
-5.5930030E-001	0.000000000000000E+000
-5.5815870E-001	0.000000000000000E+000
-5.5842215E-001	0.000000000000000E+000
-5.5870086E-001	0.000000000000000E+000
-5.5747515E-001	0.000000000000000E+000
-5.5850995E-001	0.000000000000000E+000
-5.5797923E-001	0.000000000000000E+000
-5.5925453E-001	0.000000000000000E+000
-5.5787611E-001	0.000000000000000E+000
-5.5839539E-001	0.000000000000000E+000
-5.5783027E-001	0.000000000000000E+000
-5.5799448E-001	0.000000000000000E+000
-5.5841446E-001	0.000000000000000E+000
-5.5821216E-001	0.000000000000000E+000
-5.5818158E-001	0.000000000000000E+000
-5.5921251E-001	0.000000000000000E+000
-5.5878484E-001	0.000000000000000E+000
-5.5702084E-001	0.000000000000000E+000
-5.5786085E-001	0.000000000000000E+000
-5.5772334E-001	0.000000000000000E+000
-5.5866653E-001	0.000000000000000E+000
-5.5771953E-001	0.000000000000000E+000
-5.5800974E-001	0.000000000000000E+000
-5.5792958E-001	0.000000000000000E+000
-5.5741411E-001	0.000000000000000E+000
-5.5797154E-001	0.000000000000000E+000
-5.5737972E-001	0.000000000000000E+000
-5.5692154E-001	0.000000000000000E+000
-5.5711246E-001	0.000000000000000E+000
-5.5707043E-001	0.000000000000000E+000
-5.5698645E-001	0.000000000000000E+000
-5.5792576E-001	0.000000000000000E+000
-5.5666190E-001	0.000000000000000E+000
-5.5724609E-001	0.000000000000000E+000
-5.5768520E-001	0.000000000000000E+000
-5.5674207E-001	0.000000000000000E+000
-5.5687571E-001	0.000000000000000E+000
-5.5776536E-001	0.000000000000000E+000
-5.5686045E-001	0.000000000000000E+000
-5.5719262E-001	0.000000000000000E+000
-5.5772340E-001	0.000000000000000E+000
-5.5805939E-001	0.000000000000000E+000
-5.5739123E-001	0.000000000000000E+000
-5.5764699E-001	0.000000000000000E+000
-5.5679172E-001	0.000000000000000E+000
-5.5699790E-001	0.000000000000000E+000
-5.5702078E-001	0.000000000000000E+000
-5.5676121E-001	0.000000000000000E+000
-5.5741405E-001	0.000000000000000E+000
-5.5739880E-001	0.000000000000000E+000
-5.5673826E-001	0.000000000000000E+000
-5.5758971E-001	0.000000000000000E+000
-5.6014800E-001	0.000000000000000E+000
-5.6183565E-001	0.000000000000000E+000
-7.8866518E-001	-3.731926633252041E-001
-7.8912503E-001	-3.776329370491478E-001
-7.8793752E-001	-3.719091581663623E-001
-7.8711885E-001	-3.662018927593333E-001
-7.8613979E-001	-3.613801480581369E-001
-7.8493214E-001	-3.572028708402755E-001
-7.8411448E-001	-3.533757271396691E-001
-7.8318995E-001	-3.500148116921395E-001
-7.8266484E-001	-3.468649117276070E-001
-7.8062183E-001	-3.439953396691018E-001
-7.7998149E-001	-3.412673493364342E-001
-7.7914679E-001	-3.387143400808172E-001
-7.7815759E-001	-3.361949223512104E-001
-7.7700680E-001	-3.337438017543821E-001
-7.7620727E-001	-3.314322430215020E-001
-7.7472585E-001	-3.292591366916913E-001
-7.7464414E-001	-3.270450884959213E-001
-7.7315682E-001	-3.249025869503610E-001
-7.7255356E-001	-3.227674019074547E-001
-7.7106571E-001	-3.206392128572420E-001
-7.7008063E-001	-3.186538163805830E-001
-7.6893681E-001	-3.166222530244669E-001
-7.6820433E-001	-3.146189819952396E-001
-7.6743126E-001	-3.127153280875103E-001
-7.6610088E-001	-3.106913909454034E-001
-7.6536226E-001	-3.088578008874148E-001
-7.6390481E-001	-3.069068120939478E-001
-7.6312411E-001	-3.050431018281310E-001
-7.6198977E-001	-3.031841233799677E-001
-7.6103979E-001	-3.012724265249238E-001
-7.5971377E-001	-2.994318014631676E-001
-7.5928533E-001	-2.976553769103580E-001
-7.5809389E-001	-2.958281983931865E-001
-7.5769496E-001	-2.940545731948498E-001
-7.5613779E-001	-2.921898296563832E-001
-7.5527114E-001	-2.904297930222972E-001
-7.5435960E-001	-2.887159526968990E-001
-7.5325084E-001	-2.869257953042950E-001
-7.5167215E-001	-2.851412844740677E-001
-7.5129801E-001	-2.834413851263236E-001
-7.5050128E-001	-2.817158127134600E-001
-7.4868864E-001	-2.799468306065702E-001
-7.4827313E-001	-2.783376965672986E-001
-7.4699825E-001	-2.765791170230059E-001
-7.4652284E-001	-2.748930851273519E-001
-7.4522883E-001	-2.732792770503456E-001
-7.4415588E-001	-2.715338867640602E-001
-7.4271059E-001	-2.698413953530019E-001
-7.4180555E-001	-2.681853830766139E-001
-7.4102134E-001	-2.666326531864427E-001
-7.4013299E-001	-2.649694588380278E-001
-7.3913676E-001	-2.633228847852971E-001
-7.3847836E-001	-2.617205930873747E-001
-7.3711503E-001	-2.601990770754319E-001
-7.3594761E-001	-2.585109509872603E-001
-7.3526651E-001	-2.569000745813059E-001
-7.3437041E-001	-2.552801639257436E-001
-7.3318571E-001	-2.536753512298073E-001
-7.3223478E-001	-2.521046712235717E-001
-7.3116672E-001	-2.505232419368688E-001
-7.3012692E-001	-2.488865244236796E-001
-7.2904831E-001	-2.474028519527223E-001
-7.2846556E-001	-2.457725656425378E-001
-7.2705734E-001	-2.441194424474675E-001
-7.2610474E-001	-2.426222479315827E-001
-7.2526807E-001	-2.411416108103621E-001
-7.2423482E-001	-2.396250571365712E-001
-7.2332680E-001	-2.381042368227086E-001
-7.2207665E-001	-2.365765054192801E-001
-7.2068810E-001	-2.350454091749814E-001
-7.2004735E-001	-2.335233330954898E-001
-7.1912342E-001	-2.320459803773303E-001
-7.1795690E-001	-2.305402815755873E-001
-7.1711773E-001	-2.290527662633571E-001
-7.1627265E-001	-2.276024868435882E-001
-7.1496654E-001	-2.260622083105970E-001
-7.1401042E-001	-2.246456395481244E-001
-7.1320879E-001	-2.231076909574092E-001
-7.1206015E-001	-2.217074952413463E-001
-7.1118671E-001	-2.201921866378846E-001
-7.1002185E-001	-2.187354270437801E-001
-7.0888013E-001	-2.172685040488438E-001
-7.0838022E-001	-2.158396345114819E-001
-7.0698011E-001	-2.144663397360729E-001
-7.0588887E-001	-2.130335933938232E-001
-7.0503449E-001	-2.116109857473649E-001
-7.0428228E-001	-2.101410948153999E-001
-7.0312619E-001	-2.086923212238467E-001
-7.0214999E-001	-2.073142032518427E-001
-7.0141834E-001	-2.058956878328764E-001
-7.0006317E-001	-2.044972681924815E-001
-6.9928253E-001	-2.031582944026145E-001
-6.9804603E-001	-2.017638612211088E-001
-6.9704914E-001	-2.003915547220783E-001
-6.9623679E-001	-1.990765358355866E-001
-6.9527119E-001	-1.976500722581434E-001
-6.9408262E-001	-1.962388209584680E-001
-6.9268727E-001	-1.947953779146907E-001
-6.9248497E-001	-1.934569856820922E-001
-6.9107330E-001	-1.921863806502975E-001
-6.8998241E-001	-1.908044935273074E-001
-6.8923420E-001	-1.894166964861661E-001
-6.8782067E-001	-1.881394104997592E-001
-6.8715405E-001	-1.867753943711690E-001
-6.8628883E-001	-1.853991509415214E-001
-6.8552321E-001	-1.840527049369278E-001
-6.8422836E-001	-1.828034642514393E-001
-6.8346369E-001	-1.814730530777191E-001
-6.8213278E-001	-1.801672723592710E-001
-6.8108463E-001	-1.787977228339764E-001
-6.8007845E-001	-1.774423965770353E-001
-6.7934287E-001	-1.760805399605519E-001
-6.7815232E-001	-1.747924956649665E-001
-6.7750585E-001	-1.735434971784274E-001
-6.7630291E-001	-1.722760996608828E-001
-6.7525625E-001	-1.709274695196377E-001
-6.7410254E-001	-1.697555202300899E-001
-6.7361265E-001	-1.684561798719730E-001
-6.7205971E-001	-1.671650227918113E-001
-6.7117172E-001	-1.658994528051043E-001
-6.7033368E-001	-1.645692695011101E-001
-6.6927063E-001	-1.633942166205360E-001
-6.6846710E-001	-1.620818119737564E-001
-6.6736287E-001	-1.608538727835254E-001
-6.6634709E-001	-1.595137857452587E-001
-6.6517699E-001	-1.583103706922240E-001
-6.6456562E-001	-1.570734666945527E-001
-6.6299111E-001	-1.557950356940707E-001
-6.6208905E-001	-1.545985910041181E-001
-6.6093302E-001	-1.533753146363448E-001
-6.6033399E-001	-1.521329620887557E-001
-6.5919030E-001	-1.509255809143806E-001
-6.5827209E-001	-1.497398756823876E-001
-6.5711725E-001	-1.484726956976508E-001
-6.5632141E-001	-1.472776527200449E-001
-6.5532100E-001	-1.459298732138616E-001
-6.5437192E-001	-1.446952181868251E-001
-6.5360963E-001	-1.435603822249685E-001
-6.5203995E-001	-1.423810270476948E-001
-6.5105021E-001	-1.412535427241688E-001
-6.5010345E-001	-1.399940070892016E-001
-6.4937067E-001	-1.388329371327051E-001
-6.4808702E-001	-1.376668117354041E-001
-6.4727813E-001	-1.364584708955261E-001
-6.4648348E-001	-1.352591107220018E-001
-6.4531624E-001	-1.339912239308463E-001
-6.4400309E-001	-1.329766543478605E-001
-6.4355528E-001	-1.318044516913314E-001
-6.4202744E-001	-1.305600589464770E-001
-6.4113349E-001	-1.294521669753723E-001
-6.4022535E-001	-1.283298473011842E-001
-6.3911009E-001	-1.271533323259786E-001
-6.3828182E-001	-1.259782320681820E-001
-6.3745075E-001	-1.247726121089516E-001
-6.3615119E-001	-1.236850237088915E-001
-6.3556790E-001	-1.225820432451592E-001
-6.3381332E-001	-1.213899214319678E-001
-6.3318509E-001	-1.202709549796523E-001
-6.3253045E-001	-1.191161005343835E-001
-6.3141567E-001	-1.180099442156810E-001
-6.3010836E-001	-1.169173071954261E-001
-6.2939078E-001	-1.158414235924958E-001
-6.2813288E-001	-1.147242745118142E-001
-6.2716043E-001	-1.136065692019956E-001
-6.2613183E-001	-1.124976014683921E-001
-6.2490916E-001	-1.114247915575217E-001
-6.2426549E-001	-1.103599525608677E-001
-6.2325829E-001	-1.092709637143545E-001
-6.2202799E-001	-1.081461634392433E-001
-6.2147349E-001	-1.070540180533298E-001
-6.2049288E-001	-1.059511815550411E-001
-6.1935008E-001	-1.048732148310925E-001
-6.1834317E-001	-1.037619524911322E-001
-6.1750245E-001	-1.027143801193817E-001
-6.1587691E-001	-1.016408392331667E-001
-6.1539370E-001	-1.005531764520259E-001
-6.1421895E-001	-9.944292949876349E-002
-6.1339527E-001	-9.848743294262241E-002
-6.1229134E-001	-9.737785370089136E-002
-6.1129200E-001	-9.623431819357764E-002
-6.1014444E-001	-9.522000429461963E-002
-6.0916746E-001	-9.421393044182858E-002
-6.0794938E-001	-9.315853703905053E-002
-6.0719693E-001	-9.196450992452898E-002
-6.0618067E-001	-9.094947138938592E-002
-6.0536200E-001	-9.001026381910959E-002
-6.0416460E-001	-8.897252607642248E-002
-6.0357541E-001	-8.791197402315465E-002
-6.0217518E-001	-8.698952666276849E-002
-6.0083985E-001	-8.586180759421347E-002
-6.0035270E-001	-8.482828486006100E-002
-5.9913731E-001	-8.386626078195333E-002
-5.9869981E-001	-8.286086611311694E-002
-5.9733427E-001	-8.173531484212826E-002
-5.9634399E-001	-8.082814413743689E-002
-5.9522897E-001	-7.972430595114444E-002
-5.9408718E-001	-7.877795206796789E-002
-5.9312147E-001	-7.771819932558721E-002
-5.9235698E-001	-7.679060087263120E-002
-5.9113592E-001	-7.578542697484836E-002
-5.8981478E-001	-7.473683235649442E-002
-5.8901715E-001	-7.377755806667474E-002
-5.8855742E-001	-7.281510345637798E-002
-5.8707702E-001	-7.177607764282978E-002
-5.8616805E-001	-7.082058417479670E-002
-5.8523577E-001	-6.983538591130445E-002
-5.8439851E-001	-6.886934983130133E-002
-5.8335119E-001	-6.786198755868667E-002
-5.8227849E-001	-6.687009170720393E-002
-5.8125919E-001	-6.600464966152564E-002
-5.8018374E-001	-6.494860352810333E-002
-5.7954824E-001	-6.398406665323811E-002
-5.7836968E-001	-6.307157786776885E-002
-5.7720363E-001	-6.207981960054609E-002
-5.7644325E-001	-6.117882773590566E-002
-5.7470387E-001	-6.020895621556510E-002
-5.7402486E-001	-5.916717942562638E-002
-5.7355434E-001	-5.832317212803495E-002
-5.7161325E-001	-5.735728295871734E-002
-5.7138687E-001	-5.636260070389620E-002
-5.7044274E-001	-5.552744286429634E-002
-5.6912386E-001	-5.449478854252776E-002
-5.6820363E-001	-5.355703609961027E-002
-5.6722522E-001	-5.268224299211544E-002
-5.6631869E-001	-5.173386846393102E-002
-5.6509960E-001	-5.077774827885962E-002
-5.6414813E-001	-4.977704527178856E-002
-5.6350589E-001	-4.893926769081136E-002
-5.6212431E-001	-4.795011647338776E-002
-5.6125242E-001	-4.703784254086918E-002
-5.6013370E-001	-4.620189349494752E-002
-5.5890244E-001	-4.518635170016841E-002
-5.5828702E-001	-4.414112803604675E-002
-5.5695432E-001	-4.323908633604229E-002
-5.5589676E-001	-4.237128716254646E-002
-5.5464274E-001	-4.145355208311241E-002
-5.5393469E-001	-4.054406387041565E-002
-5.5299443E-001	-3.964490443873162E-002
-5.5156630E-001	-3.875859066654276E-002
-5.5091679E-001	-3.786578069061600E-002
-5.5002487E-001	-3.693875692054462E-002
-5.4882264E-001	-3.607131564489530E-002
-5.4756904E-001	-3.521323262729548E-002
-5.4702508E-001	-3.428097402125035E-002
-5.4578453E-001	-3.339367034344892E-002
-5.4491055E-001	-3.253385419684687E-002
-5.4387581E-001	-3.162376533900563E-002
-5.4294479E-001	-3.080511826125000E-002
-5.4169548E-001	-2.990639646012250E-002
-5.4099041E-001	-2.901679024755688E-002
-5.4029042E-001	-2.817543736590000E-002
-5.3917420E-001	-2.723113164589730E-002
-5.3798378E-001	-2.634383695786469E-002
-5.3676343E-001	-2.552660672356272E-002
-5.3609246E-001	-2.466331436904304E-002
-5.3492719E-001	-2.373349458772545E-002
-5.3415626E-001	-2.282236869297026E-002
-5.3276390E-001	-2.207091359499230E-002
-5.3185099E-001	-2.122562197338851E-002
-5.3098083E-001	-2.040311361656413E-002
-5.2996898E-001	-1.954090807379955E-002
-5.2900678E-001	-1.862749820833823E-002
-5.2791601E-001	-1.783084875254197E-002
-5.2706945E-001	-1.695805548310836E-002
-5.2594662E-001	-1.607067685108632E-002
-5.2470672E-001	-1.521552856595135E-002
-5.2397978E-001	-1.438102819870607E-002
-5.2282727E-001	-1.354746787095727E-002
-5.2171320E-001	-1.274069643976095E-002
-5.2104521E-001	-1.188975389555300E-002
-5.2016598E-001	-1.105432863405659E-002
-5.1880741E-001	-1.024171600389917E-002
-5.1786786E-001	-9.390821835647031E-003
-5.1696473E-001	-8.569102415179997E-003
-5.1581329E-001	-7.737759442534256E-003
-5.1492912E-001	-6.877426105482431E-003
-5.1407558E-001	-6.109417443763619E-003
-5.1270938E-001	-5.243131373491538E-003
-5.1186079E-001	-4.231875031513649E-003
-5.1072586E-001	-3.222996010326509E-003
-5.0973117E-001	-2.323696235382360E-003
-5.0850552E-001	-1.588111119253360E-003
-5.0749326E-001	-8.033330757623615E-004
-5.0676030E-001	7.077517992247132E-006
-5.0538266E-001	8.296251738757450E-004
-5.0461465E-001	1.624143749116527E-003
-5.0354213E-001	2.448236800975991E-003
-5.0286490E-001	3.303540280145650E-003
-5.0123519E-001	4.093752182261254E-003
-5.0064045E-001	4.874579011479793E-003
-4.9961922E-001	5.725059350003933E-003
-4.9836794E-001	6.518166768795783E-003
-4.9742657E-001	7.337975562004440E-003
-4.9646512E-001	8.128733249139708E-003
-4.9551904E-001	8.918227790639291E-003
-4.9459976E-001	9.716611641685247E-003
-4.9313468E-001	1.050925844012657E-002
-4.9247754E-001	1.145784058124805E-002
-4.9160740E-001	1.223744576799318E-002
-4.9035287E-001	1.301175444085079E-002
-4.8939505E-001	1.380441573745547E-002
-4.8803982E-001	1.460657051885156E-002
-4.8724478E-001	1.531783115394688E-002
-4.8620951E-001	1.615986386073695E-002
-4.8524994E-001	1.704528233407199E-002
-4.8458931E-001	1.776141545700810E-002
-4.8317197E-001	1.848696356121832E-002
-4.8226038E-001	1.926888871282606E-002
-4.8146176E-001	2.002898638386769E-002
-4.8006448E-001	2.082145427805371E-002
-4.7925946E-001	2.155485026391778E-002
-4.7800213E-001	2.236964652239665E-002
-4.7728643E-001	2.310932877352812E-002
-4.7613227E-001	2.391577047442461E-002
-4.7534692E-001	2.465662734248222E-002
-4.7431752E-001	2.546385561409242E-002
-4.7303289E-001	2.620269296932276E-002
-4.7217602E-001	2.694412304326568E-002
-4.7178897E-001	2.773587286679269E-002
-4.7074151E-001	2.848486307387554E-002
-4.6941268E-001	2.928385212094053E-002
-4.6813464E-001	3.004703461192554E-002
-4.6718943E-001	3.076988496576197E-002
-4.6658295E-001	3.151981651964686E-002
-4.6553740E-001	3.223746977918951E-002
-4.6426648E-001	3.299882253232435E-002
-4.6350840E-001	3.377070625019438E-002
-4.6247426E-001	3.456726561610879E-002
-4.6143502E-001	3.536795814882060E-002
-4.6002993E-001	3.599650051910433E-002
-4.5905983E-001	3.675206718293741E-002
-4.5810676E-001	3.751086043094129E-002
-4.5737958E-001	3.823084714477523E-002
-4.5624450E-001	3.894623024475394E-002
-4.5528898E-001	3.966653765095982E-002
-4.5486543E-001	4.042308783607099E-002
-4.5343319E-001	4.110880157289401E-002
-4.5245099E-001	4.192958666002700E-002
-4.5118228E-001	4.258703689211629E-002
-4.5009395E-001	4.336661824638091E-002
-4.4945711E-001	4.411071004708189E-002
-4.4863185E-001	4.483604980891365E-002
-4.4725659E-001	4.555572046944656E-002
-4.4630015E-001	4.628013700453781E-002
-4.4524354E-001	4.700338233831425E-002
-4.4436964E-001	4.774400029005998E-002
-4.4353890E-001	4.849853213979971E-002
-4.4233808E-001	4.921684325327746E-002
-4.4145679E-001	4.997249188862896E-002
-4.4036359E-001	5.064157124056867E-002
-4.3936980E-001	5.137640041567915E-002
-4.3843976E-001	5.209382056017176E-002
-4.3744937E-001	5.286809484715815E-002
-4.3633145E-001	5.353883620468514E-002
-4.3516561E-001	5.427035462559626E-002
-4.3422121E-001	5.499374657800327E-002
-4.3329006E-001	5.570904663065490E-002
-4.3236253E-001	5.640393780992814E-002
-4.3124783E-001	5.712336404421525E-002
-4.3065196E-001	5.780610058025955E-002
-4.2941755E-001	5.850489530712399E-002
-4.2807949E-001	5.922010669450239E-002
-4.2749402E-001	5.998443860722619E-002
-4.2600951E-001	6.066607203576024E-002
-4.2528033E-001	6.136312696661063E-002
-4.2448026E-001	6.207895185798396E-002
-4.2331338E-001	6.275685964566119E-002
-4.2199513E-001	6.344408044492433E-002
-4.2137185E-001	6.418073216142772E-002
-4.2022720E-001	6.482875169496283E-002
-4.1933554E-001	6.556877466980715E-002
-4.1818246E-001	6.624387715149793E-002
-4.1771853E-001	6.694804912398544E-002
-4.1637892E-001	6.763641311768165E-002
-4.1527081E-001	6.832447616141993E-002
-4.1409644E-001	6.904791394026577E-002
-4.1332918E-001	6.981462984414825E-002
-4.1230461E-001	7.045389711856868E-002
-4.1137761E-001	7.110251998919637E-002
-4.1001934E-001	7.177445954746675E-002
-4.0911016E-001	7.248095664437182E-002
-4.0789154E-001	7.313614299728313E-002
-4.0719065E-001	7.382918095768065E-002
-4.0660372E-001	7.450070347705928E-002
-4.0543121E-001	7.515992941062183E-002
-4.0423891E-001	7.587975327408431E-002
-4.0349814E-001	7.651925340501808E-002
-4.0213719E-001	7.720748396897098E-002
-4.0121526E-001	7.786052037651370E-002
-4.0039024E-001	7.856410053016355E-002
-3.9929631E-001	7.924684712283891E-002
-3.9840111E-001	7.992564856626624E-002
-3.9779967E-001	8.055671875676129E-002
-3.9656922E-001	8.127779538605223E-002
-3.9529878E-001	8.197660141417540E-002
-3.9453685E-001	8.260762787264941E-002
-3.9344859E-001	8.332368117515754E-002
-3.9250505E-001	8.396352589544320E-002
-3.9130509E-001	8.461215522387433E-002
-3.9019686E-001	8.531518376225389E-002
-3.8918123E-001	8.613319132753039E-002
-3.8839403E-001	8.673827985043669E-002
-3.8697615E-001	8.731380614658990E-002
-3.8630962E-001	8.795641086967843E-002
-3.8521975E-001	8.863276720943825E-002
-3.8450021E-001	8.925464995964250E-002
-3.8298264E-001	8.990717320344777E-002
-3.8229793E-001	9.059349350044854E-002
-3.8121098E-001	9.126882009311688E-002
-3.8063848E-001	9.197598693127668E-002
-3.7977126E-001	9.258971006299066E-002
-3.7848157E-001	9.328619453676607E-002
-3.7747052E-001	9.390329819507581E-002
-3.7627542E-001	9.454642587203344E-002
-3.7532443E-001	9.526776873368581E-002
-3.7466919E-001	9.588229950950855E-002
-3.7291169E-001	9.649158533041668E-002
-3.7216374E-001	9.718146576148978E-002
-3.7130737E-001	9.781451713017852E-002
-3.7036955E-001	9.850997174227705E-002
-3.6933514E-001	9.917262481722844E-002
-3.6824763E-001	9.978670932145595E-002
-3.6742926E-001	1.003802906790823E-001
-3.6601689E-001	1.010854136472341E-001
-3.6529186E-001	1.017775267052157E-001
-3.6454052E-001	1.024214790237178E-001
-3.6351830E-001	1.030079758581195E-001
-3.6238170E-001	1.036835501004973E-001
-3.6081633E-001	1.043368764618178E-001
-3.6058176E-001	1.049795477582069E-001
-3.5957548E-001	1.055757600331195E-001
-3.5830906E-001	1.062089864842382E-001
-3.5748768E-001	1.069458768599567E-001
-3.5647228E-001	1.075341932958475E-001
-3.5526565E-001	1.081773302256930E-001
-3.5406482E-001	1.087928975552872E-001
-3.5300523E-001	1.094752447988956E-001
-3.5265505E-001	1.102094016346826E-001
-3.5104644E-001	1.108717983933512E-001
-3.5011578E-001	1.115164805564346E-001
-3.4924379E-001	1.121428116845589E-001
-3.4817001E-001	1.128173051746910E-001
-3.4708586E-001	1.134187707761412E-001
-3.4587815E-001	1.140141623025690E-001
-3.4534594E-001	1.146304715873190E-001
-3.4388238E-001	1.152649846431837E-001
-3.4298879E-001	1.158753147141804E-001
-3.4241074E-001	1.165769430118861E-001
-3.4091231E-001	1.173735864254009E-001
-3.3992162E-001	1.180107462461345E-001
-3.3912754E-001	1.186245375310372E-001
-3.3801568E-001	1.191156697631981E-001
-3.3699176E-001	1.197799947975138E-001
-3.3589369E-001	1.203040374580133E-001
-3.3485031E-001	1.209163745968708E-001
-3.3390570E-001	1.215275082116329E-001
-3.3278131E-001	1.221971328413622E-001
-3.3215120E-001	1.227592044958357E-001
-3.3151188E-001	1.233579030570882E-001
-3.2960311E-001	1.240445637423084E-001
-3.2883629E-001	1.245513537174296E-001
-3.2849497E-001	1.252107172514554E-001
-3.2678607E-001	1.258173837429943E-001
-3.2618979E-001	1.264698671315005E-001
-3.2542273E-001	1.271188521838824E-001
-3.2461685E-001	1.276914454065265E-001
-3.2267123E-001	1.284215556526624E-001
-3.2210806E-001	1.289809843894330E-001
-3.2108745E-001	1.295424887600052E-001
-3.2008049E-001	1.302889734334146E-001
-3.1906337E-001	1.308798687956405E-001
-3.1796139E-001	1.314472269646270E-001
-3.1696329E-001	1.321411757833431E-001
-3.1584153E-001	1.328063330165075E-001
-3.1515411E-001	1.333920462574394E-001
-3.1412211E-001	1.339036872506969E-001
-3.1274068E-001	1.343908639258786E-001
-3.1187543E-001	1.349339826825871E-001
-3.1123090E-001	1.357090750771164E-001
-3.0990520E-001	1.362890792596674E-001
-3.0899751E-001	1.368435751991688E-001
-3.0831030E-001	1.375119356629519E-001
-3.0712718E-001	1.380573376254356E-001
-3.0624834E-001	1.386542125018657E-001
-3.0537185E-001	1.393778194313196E-001
-3.0428255E-001	1.398336744384370E-001
-3.0295229E-001	1.404968329739797E-001
-3.0215350E-001	1.411655220019399E-001
-3.0076316E-001	1.417530615538085E-001
-3.0019334E-001	1.423216208020515E-001
-2.9903454E-001	1.429778447340211E-001
-2.9802307E-001	1.435931926869132E-001
-2.9759261E-001	1.441120107481955E-001
-2.9596969E-001	1.447002758203009E-001
-2.9489252E-001	1.452917198616048E-001
-2.9397562E-001	1.458790190325820E-001
-2.9308602E-001	1.464889595561005E-001
-2.9217964E-001	1.474240559877623E-001
-2.9111949E-001	1.478099344632344E-001
-2.9003057E-001	1.483769388351996E-001
-2.8904524E-001	1.489613035831732E-001
-2.8792351E-001	1.495452999495783E-001
-2.8716129E-001	1.500644197825478E-001
-2.8614169E-001	1.506009408664223E-001
-2.8492001E-001	1.512665442811947E-001
-2.8418434E-001	1.517966405523048E-001
-2.8275716E-001	1.524741998927004E-001
-2.8198436E-001	1.530171746939972E-001
-2.8101155E-001	1.535569152070413E-001
-2.8025365E-001	1.542029975057656E-001
-2.7942398E-001	1.548470273717409E-001
-2.7843481E-001	1.553614089368947E-001
-2.7701494E-001	1.559551996194704E-001
-2.7679762E-001	1.564244027594453E-001
-2.7526024E-001	1.570819431623320E-001
-2.7423406E-001	1.576966680068939E-001
-2.7304041E-001	1.582655156617637E-001
-2.7190119E-001	1.587869817572187E-001
-2.7113849E-001	1.593687079019019E-001
-2.7035382E-001	1.599813082289916E-001
-2.6907438E-001	1.605426366874580E-001
-2.6784989E-001	1.609474095619383E-001
-2.6723513E-001	1.616594335409229E-001
-2.6579544E-001	1.622059802842164E-001
-2.6533365E-001	1.627961826441737E-001
-2.6453668E-001	1.634315078457191E-001
-2.6315385E-001	1.640224014014937E-001
-2.6201236E-001	1.645686201475287E-001
-2.6125053E-001	1.651031228944770E-001
-2.6010767E-001	1.656546314522900E-001
-2.5904340E-001	1.664222807761422E-001
-2.5821659E-001	1.671410457011264E-001
-2.5727576E-001	1.676197367271897E-001
-2.5621003E-001	1.680776464097479E-001
-2.5487846E-001	1.685971804724336E-001
-2.5420925E-001	1.691640475592407E-001
-2.5322413E-001	1.697330945343885E-001
-2.5160518E-001	1.702259776239980E-001
-2.5107357E-001	1.708529759543362E-001
-2.5017458E-001	1.713584106139558E-001
-2.4946265E-001	1.719113548178282E-001
-2.4833754E-001	1.725346296508272E-001
-2.4702810E-001	1.731290053032728E-001
-2.4631895E-001	1.736615364681242E-001
-2.4497107E-001	1.742858336031157E-001
-2.4369179E-001	1.747899598854366E-001
-2.4312006E-001	1.753708658636435E-001
-2.4208681E-001	1.758609581738710E-001
-2.4128918E-001	1.764507883200314E-001
-2.4020477E-001	1.770084901298903E-001
-2.3893203E-001	1.775324396202684E-001
-2.3799127E-001	1.781286387923000E-001
-2.3709673E-001	1.786513948744093E-001
-2.3577610E-001	1.792242923682452E-001
-2.3520540E-001	1.797599780580238E-001
-2.3394893E-001	1.802592931349789E-001
-2.3326428E-001	1.808529046409914E-001
-2.3211022E-001	1.814310205238012E-001
-2.3120761E-001	1.820029009961418E-001
-2.2987886E-001	1.825450276412450E-001
-2.2936721E-001	1.830898118895239E-001
-2.2842069E-001	1.836318322457369E-001
-2.2711912E-001	1.841916420416829E-001
-2.2637813E-001	1.846712994630688E-001
-2.2470509E-001	1.852267611668337E-001
-2.2414538E-001	1.859867480832058E-001
-2.2298238E-001	1.864451304492023E-001
-2.2196013E-001	1.869643324452999E-001
-2.2115597E-001	1.874654481394424E-001
-2.2035243E-001	1.879994394430129E-001
-2.1909139E-001	1.884978942453790E-001
-2.1818109E-001	1.891083482618412E-001
-2.1707273E-001	1.896743403954639E-001
-2.1627308E-001	1.901192019445643E-001
-2.1524036E-001	1.907046943799493E-001
-2.1421473E-001	1.912052976139997E-001
-2.1335255E-001	1.917297021663797E-001
-2.1173561E-001	1.922673916582160E-001
-2.1127866E-001	1.927664869430440E-001
-2.1039644E-001	1.934380391822611E-001
-2.0932244E-001	1.939005599771111E-001
-2.0825425E-001	1.943941233266133E-001
-2.0753844E-001	1.949627622444603E-001
-2.0614731E-001	1.954498669236067E-001
-2.0512499E-001	1.960894463987604E-001
-2.0404130E-001	1.966029697753210E-001
-2.0301503E-001	1.970647736280065E-001
-2.0201063E-001	1.976194168906611E-001
-2.0135386E-001	1.980649705424353E-001
-1.9993113E-001	1.986817655119073E-001
-1.9923744E-001	1.991798935404194E-001
-1.9823900E-001	1.996544271155642E-001
-1.9745407E-001	2.000847611461364E-001
-1.9621952E-001	2.007276334075456E-001
-1.9533433E-001	2.013444248241960E-001
-1.9385879E-001	2.017834847277138E-001
-1.9331148E-001	2.023436049413352E-001
-1.9210024E-001	2.028686979923546E-001
-1.9122002E-001	2.035474369807360E-001
-1.9024496E-001	2.042186661037033E-001
-1.8945330E-001	2.045164025837072E-001
-1.8798946E-001	2.049571966184489E-001
-1.8760441E-001	2.054317612890846E-001
-1.8614030E-001	2.059401037102506E-001
-1.8535724E-001	2.065255461446267E-001
-1.8404724E-001	2.070693025641419E-001
-1.8331169E-001	2.075743473671436E-001
-1.8250039E-001	2.080397413422652E-001
-1.8106216E-001	2.085590761292857E-001
-1.8013902E-001	2.090255107880270E-001
-1.7926800E-001	2.096247396742301E-001
-1.7854317E-001	2.100772038792016E-001
-1.7695507E-001	2.105766914583267E-001
-1.7616352E-001	2.110929703684867E-001
-1.7542851E-001	2.116174132528683E-001
-1.7434293E-001	2.121946488514823E-001
-1.7307813E-001	2.127023584864749E-001
-1.7192140E-001	2.131778658195227E-001
-1.7128076E-001	2.137347369150371E-001
-1.7018768E-001	2.140780167861118E-001
-1.6935576E-001	2.147008411628129E-001
-1.6813108E-001	2.152826883312726E-001
-1.6723889E-001	2.157519383493947E-001
-1.6610116E-001	2.159930843972226E-001
-1.6525424E-001	2.165264088177556E-001
-1.6424173E-001	2.171128202850618E-001
-1.6300918E-001	2.175801526170409E-001
-1.6201292E-001	2.181480041601600E-001
-1.6081163E-001	2.186918649822474E-001
-1.6025598E-001	2.191152971623644E-001
-1.5879962E-001	2.196567841564061E-001
-1.5799369E-001	2.202024511293237E-001
-1.5734062E-001	2.207150986694075E-001
-1.5618429E-001	2.213481881621262E-001
-1.5466642E-001	2.217429083442859E-001
-1.5406175E-001	2.221817964756932E-001
-1.5307344E-001	2.226735369681762E-001
-1.5216577E-001	2.232003006016674E-001
-1.5128542E-001	2.237207247289241E-001
-1.5035102E-001	2.241714308383291E-001
-1.4924189E-001	2.246436877598823E-001
-1.4784664E-001	2.251356325491716E-001
-1.4704330E-001	2.256626423310348E-001
-1.4613418E-001	2.261121821066130E-001
-1.4504275E-001	2.266813952268826E-001
-1.4431936E-001	2.271436509090057E-001
-1.4375110E-001	2.276394518989107E-001
-1.4223035E-001	2.281257357379359E-001
-1.4116357E-001	2.285419795258745E-001
-1.4003167E-001	2.291105566201392E-001
-1.3916022E-001	2.295714191126608E-001
-1.3783182E-001	2.300790771502017E-001
-1.3701732E-001	2.306397652805412E-001
-1.3613656E-001	2.310017181077498E-001
-1.3523984E-001	2.314844954511965E-001
-1.3414194E-001	2.320554744521224E-001
-1.3301064E-001	2.325277297102186E-001
-1.3229091E-001	2.329585730696573E-001
-1.3110703E-001	2.333815488964319E-001
-1.3022335E-001	2.339342681709748E-001
-1.2932685E-001	2.343492809752071E-001
-1.2785469E-001	2.349002559634821E-001
-1.2727131E-001	2.353821306327890E-001
-1.2607875E-001	2.358741923062889E-001
-1.2512311E-001	2.362568410527379E-001
-1.2411531E-001	2.366823329351311E-001
-1.2355571E-001	2.370631882093019E-001
-1.2235846E-001	2.377175213424141E-001
-1.2120296E-001	2.380724203837810E-001
-1.2039989E-001	2.385437807620121E-001
-1.1955710E-001	2.390423699721814E-001
-1.1843114E-001	2.395570259886224E-001
-1.1705147E-001	2.400832885393394E-001
-1.1611164E-001	2.405247455303492E-001
-1.1530502E-001	2.409552650319218E-001
-1.1392640E-001	2.414937538129314E-001
-1.1314740E-001	2.419436965056256E-001
-1.1195190E-001	2.423561604141646E-001
-1.1107668E-001	2.427929990269515E-001
-1.1064048E-001	2.432855001784011E-001
-1.0905786E-001	2.438338130919466E-001
-1.0899910E-001	2.442705532259959E-001
-1.0685711E-001	2.447070749032854E-001
-1.0587659E-001	2.452530014087211E-001
-1.0496492E-001	2.455982344329306E-001
-1.0387983E-001	2.460923309058500E-001
-1.0310408E-001	2.467623039804133E-001
-1.0230559E-001	2.474785184072017E-001
-1.0115379E-001	2.477674877822946E-001
-1.0050361E-001	2.480987333520139E-001
-9.9602640E-002	2.484697948049801E-001
-9.8226428E-002	2.489378322260805E-001
-9.7260810E-002	2.493602839746965E-001
-9.5896244E-002	2.498093001641690E-001
-9.5325999E-002	2.502798766794601E-001
-9.3854472E-002	2.507442280788106E-001
-9.3290642E-002	2.510946415643700E-001
-9.2175901E-002	2.515448338731577E-001
-9.0823859E-002	2.521050868175397E-001
-9.0203121E-002	2.525459151646059E-001
-8.9186192E-002	2.530322866859258E-001
-8.8139534E-002	2.534598629130587E-001
-8.7338984E-002	2.538715645118987E-001
-8.5998766E-002	2.544064534552120E-001
-8.5282885E-002	2.547674703249339E-001
-8.4108911E-002	2.552373337179970E-001
-8.3049759E-002	2.557852800452594E-001
-8.1860870E-002	2.561918468532951E-001
-8.1435472E-002	2.566203458441623E-001
-8.0486253E-002	2.570013311294135E-001
-7.9053499E-002	2.574576736531326E-001
-7.8253135E-002	2.579206790154187E-001
-7.7215619E-002	2.583295023277108E-001
-7.5973190E-002	2.588239816465858E-001
-7.5022444E-002	2.592702830141338E-001
-7.4108183E-002	2.596654645330960E-001
-7.3030777E-002	2.600935689622054E-001
-7.2235510E-002	2.604965608980923E-001
-7.1028650E-002	2.608341075442588E-001
-7.0642218E-002	2.614376331782999E-001
-6.9433309E-002	2.618085409480115E-001
-6.8615422E-002	2.622539129281107E-001
-6.7084424E-002	2.626189643310188E-001
-6.6093802E-002	2.631725034796171E-001
-6.5121397E-002	2.635180612819066E-001
-6.3997760E-002	2.641125994699971E-001
-6.2716849E-002	2.644326785103575E-001
-6.2489953E-002	2.648710066590607E-001
-6.1078880E-002	2.652819199073644E-001
-6.0649320E-002	2.657407462836301E-001
-5.9145980E-002	2.662615445614969E-001
-5.8432590E-002	2.667319386231659E-001
-5.7109769E-002	2.671019217969013E-001
-5.6348439E-002	2.673996286121776E-001
-5.4958574E-002	2.678186035266630E-001
-5.4056611E-002	2.681476454237028E-001
-5.3052619E-002	2.684907912863080E-001
-5.1603172E-002	2.690469637084022E-001
-5.0810430E-002	2.694739680737248E-001
-5.0009433E-002	2.698239785515621E-001
-4.9055986E-002	2.703606098197575E-001
-4.8050221E-002	2.707688759805427E-001
-4.6946738E-002	2.710757756053841E-001
-4.6416305E-002	2.713039880940418E-001
-4.5320354E-002	2.718494788019195E-001
-4.4275627E-002	2.723476386594559E-001
-4.3559741E-002	2.726927946446520E-001
-4.1668367E-002	2.731470470834117E-001
-4.1434914E-002	2.735800095858352E-001
-4.0477488E-002	2.740164790302515E-001
-3.8907744E-002	2.743550589032209E-001
-3.8424436E-002	2.746595471823483E-001
-3.7073903E-002	2.752024578620453E-001
-3.6084119E-002	2.755344608039776E-001
-3.5130061E-002	2.759815950707427E-001
-3.3882234E-002	2.764016008349488E-001
-3.3088457E-002	2.769263342574786E-001
-3.2542098E-002	2.772297625522242E-001
-3.1528044E-002	2.776399920177131E-001
-3.0435164E-002	2.779431672145918E-001
-2.9026886E-002	2.784208908201178E-001
-2.7996972E-002	2.787756285181739E-001
-2.7188517E-002	2.791070414306120E-001
-2.5992155E-002	2.795964378380651E-001
-2.5332227E-002	2.799935880013624E-001
-2.4530314E-002	2.802620185781124E-001
-2.3265470E-002	2.807849044049233E-001
-2.1902973E-002	2.812849875470553E-001
-2.1082092E-002	2.816521845174058E-001
-2.0254107E-002	2.819680666413040E-001
-1.9289140E-002	2.823640176060573E-001
-1.8547652E-002	2.827189764331548E-001
-1.7154716E-002	2.830944856352824E-001
-1.6718794E-002	2.835199630439833E-001
-1.5224567E-002	2.838632482120507E-001
-1.3735857E-002	2.843401931157263E-001
-1.3355534E-002	2.847760003546498E-001
-1.2437847E-002	2.850963530924040E-001
-1.1177388E-002	2.855236180540586E-001
-1.0202040E-002	2.859476282809648E-001
-9.2548765E-003	2.862317065742834E-001
-7.9348087E-003	2.865683116984594E-001
-7.2033014E-003	2.868358754227607E-001
-5.9579918E-003	2.874374901875836E-001
-5.2261525E-003	2.877758187069386E-001
-4.2126128E-003	2.880838736133597E-001
-2.9782378E-003	2.884823387074803E-001
-2.2506777E-003	2.889105757198021E-001
-1.4623756E-003	2.892968090665005E-001
-5.5256119E-004	2.897566909108451E-001
9.4428560E-004	2.900957814200291E-001
1.8035374E-003	2.904163582457451E-001
2.9736317E-003	2.909316491266662E-001
3.9831009E-003	2.911023854749297E-001
4.8066243E-003	2.914351224554355E-001
5.7658642E-003	2.917802333486859E-001
6.2591969E-003	2.921408141762616E-001
7.0021441E-003	2.928558181632646E-001