EC-Lab ASCII FILE
Nb header lines : 63                          

Linear Sweep Voltammetry

Run on channel : 6 (SN 13765)
User : 
Electrode connection : standard
Potential control : Ewe
Ewe ctrl range : min = -2.50 V, max = 2.50 V
Ewe,I filtering : <None>
Safety Limits :
	Do not start on E overload
Channel : Floating
Acquisition started on : 07/17/2026 14:44:06.747
Technique started on : 07/17/2026 14:44:07.744
Loaded Setting File :  C:\Users\EEM-620\Desktop\Wade\abao\20260629\N719_0629-0-1_C06.mpr
Saved on :
	File : N719_0717-f-2_C06.mpr
	Directory : C:\Users\EEM-620\Desktop\Wade\abao\20260717\
	Host : 192.109.209.200
Device : VSP-300 (SN 0025)
Address : 192.109.209.129
EC-LAB for windows v11.62 (software)
Internet server v27.00 (firmware)
Command interpretor v12.02 (firmware)
Electrode material : Au/Pd
Initial state : 
Electrolyte : NaCl (0.2M)
Comments : Fe(CN)63-/Fe(CN)64- 5.10-3 M
Cable : ULC
Reference electrode : SCE Saturated Calomel Electrode (0.241 V)
Electrode surface area : 0.001 cm2
Characteristic mass : 0.001 g
Equivalent Weight : 0.000 g/eq.
Density : 0.000 g/cm3
Volume (V) : 0.001 cm3
Cycle Definition : Charge/Discharge alternance
tR (h:m:s)          0:00:5.0000         
dER/dt (mV/h)       0.0                 
dER (mV)            0                   
dtR (s)             0.0500              
dE/dt               10.000              
dE/dt unit          mV/s                
Ei (V)              -0.800              
vs.                 Ref                 
EL (V)              0.010               
vs.                 Ref                 
record              <I>                 
dI                  0.000               
unit dI             uA                  
tI (s)              0.0000              
step percent        50                  
N                   10                  
E range min (V)     -2.500              
E range max (V)     2.500               
I Range             Auto                
I Range min         Unset               
I Range max         Unset               
I Range init        Unset               
Bandwidth           8                   

Ewe/V	<I>/mA	
-8.0295324E-001	0.000000000000000E+000
-8.0317086E-001	0.000000000000000E+000
-8.0249882E-001	0.000000000000000E+000
-8.0297995E-001	0.000000000000000E+000
-8.0214375E-001	0.000000000000000E+000
-8.0206740E-001	0.000000000000000E+000
-8.0337703E-001	0.000000000000000E+000
-8.0506092E-001	0.000000000000000E+000
-8.0267066E-001	0.000000000000000E+000
-8.0241483E-001	0.000000000000000E+000
-8.0308306E-001	0.000000000000000E+000
-8.0236900E-001	0.000000000000000E+000
-8.0322045E-001	0.000000000000000E+000
-8.0183446E-001	0.000000000000000E+000
-8.0294174E-001	0.000000000000000E+000
-8.0361378E-001	0.000000000000000E+000
-8.0142975E-001	0.000000000000000E+000
-8.0283862E-001	0.000000000000000E+000
-8.0316705E-001	0.000000000000000E+000
-8.0283487E-001	0.000000000000000E+000
-8.0265921E-001	0.000000000000000E+000
-8.0349922E-001	0.000000000000000E+000
-8.0281579E-001	0.000000000000000E+000
-8.0305248E-001	0.000000000000000E+000
-8.0364817E-001	0.000000000000000E+000
-8.0352980E-001	0.000000000000000E+000
-8.0321670E-001	0.000000000000000E+000
-8.0259049E-001	0.000000000000000E+000
-8.0196428E-001	0.000000000000000E+000
-8.0355656E-001	0.000000000000000E+000
-8.0406433E-001	0.000000000000000E+000
-8.0244923E-001	0.000000000000000E+000
-8.0318993E-001	0.000000000000000E+000
-8.0214757E-001	0.000000000000000E+000
-8.0369014E-001	0.000000000000000E+000
-8.0243009E-001	0.000000000000000E+000
-8.0279285E-001	0.000000000000000E+000
-8.0275083E-001	0.000000000000000E+000
-8.0306774E-001	0.000000000000000E+000
-8.0259430E-001	0.000000000000000E+000
-8.0411017E-001	0.000000000000000E+000
-8.0277377E-001	0.000000000000000E+000
-8.0219716E-001	0.000000000000000E+000
-8.0305248E-001	0.000000000000000E+000
-8.0285782E-001	0.000000000000000E+000
-8.0327398E-001	0.000000000000000E+000
-8.0305630E-001	0.000000000000000E+000
-8.0293792E-001	0.000000000000000E+000
-8.0323958E-001	0.000000000000000E+000
-8.0215138E-001	0.000000000000000E+000
-8.0253321E-001	0.000000000000000E+000
-8.0273938E-001	0.000000000000000E+000
-8.0323577E-001	0.000000000000000E+000
-8.0291122E-001	0.000000000000000E+000
-8.0285400E-001	0.000000000000000E+000
-8.0255234E-001	0.000000000000000E+000
-8.0254084E-001	0.000000000000000E+000
-8.0305630E-001	0.000000000000000E+000
-8.0241483E-001	0.000000000000000E+000
-8.0352598E-001	0.000000000000000E+000
-8.0335796E-001	0.000000000000000E+000
-8.0782920E-001	0.000000000000000E+000
-8.0837142E-001	0.000000000000000E+000
-7.8921121E-001	9.558476847798891E-002
-7.8941375E-001	9.938064439669292E-002
-7.8833318E-001	1.065014202009751E-001
-7.8682160E-001	1.152424638757550E-001
-7.8611863E-001	1.225014559890107E-001
-7.8507090E-001	1.296908272499289E-001
-7.8422391E-001	1.367989506700606E-001
-7.8276211E-001	1.439869537846086E-001
-7.8193247E-001	1.513197702286696E-001
-7.8108507E-001	1.585598107119715E-001
-7.8000838E-001	1.656378018324847E-001
-7.7882516E-001	1.728572686961676E-001
-7.7824557E-001	1.799840555952232E-001
-7.7717435E-001	1.871465526141778E-001
-7.7614313E-001	1.942709291323812E-001
-7.7470100E-001	2.013297160328547E-001
-7.7418661E-001	2.084910183524098E-001
-7.7308089E-001	2.158382584705425E-001
-7.7223372E-001	2.228983539949967E-001
-7.7136314E-001	2.299719408016507E-001
-7.7019119E-001	2.371562796696773E-001
-7.6961905E-001	2.442586440593009E-001
-7.6786584E-001	2.513226595603753E-001
-7.6685923E-001	2.584870132994892E-001
-7.6609135E-001	2.654856233340182E-001
-7.6499826E-001	2.726173024210654E-001
-7.6396942E-001	2.796982237574268E-001
-7.6324797E-001	2.868065285599912E-001
-7.6169980E-001	2.938286992135815E-001
-7.6097399E-001	3.006709280803253E-001
-7.5999779E-001	3.078996593960457E-001
-7.5908446E-001	3.148006757414130E-001
-7.5826877E-001	3.218828654951515E-001
-7.5687158E-001	3.289223839011446E-001
-7.5593305E-001	3.359075193031699E-001
-7.5512463E-001	3.428517853220308E-001
-7.5372648E-001	3.498879193707758E-001
-7.5354636E-001	3.568444320147011E-001
-7.5164735E-001	3.639020117482650E-001
-7.5160491E-001	3.707884203835357E-001
-7.5026733E-001	3.778133252635598E-001
-7.4941093E-001	3.847972446431722E-001
-7.4767226E-001	3.917350585560904E-001
-7.4711257E-001	3.986993310628115E-001
-7.4594623E-001	4.055016976263799E-001
-7.4489588E-001	4.123955810415687E-001
-7.4423891E-001	4.194335240042859E-001
-7.4343216E-001	4.261789296374283E-001
-7.4182308E-001	4.331678584437935E-001
-7.4129581E-001	4.399959002104072E-001
-7.3986673E-001	4.469009924817965E-001
-7.3880416E-001	4.537981122840142E-001
-7.3796451E-001	4.605541766655681E-001
-7.3692644E-001	4.672742896154727E-001
-7.3647523E-001	4.742238112483879E-001
-7.3481107E-001	4.809690308929584E-001
-7.3412132E-001	4.877459153066184E-001
-7.3315269E-001	4.946485021048126E-001
-7.3182893E-001	5.013304527986939E-001
-7.3168814E-001	5.081931980530188E-001
-7.3021525E-001	5.150220847378177E-001
-7.2897863E-001	5.217695132725764E-001
-7.2804773E-001	5.284193874533099E-001
-7.2660512E-001	5.352321226425754E-001
-7.2608268E-001	5.419518281878131E-001
-7.2528803E-001	5.486540641911581E-001
-7.2416675E-001	5.552998309334116E-001
-7.2300494E-001	5.620579818595965E-001
-7.2224104E-001	5.686547925212881E-001
-7.2099799E-001	5.753772264277501E-001
-7.2020477E-001	5.819855521049995E-001
-7.1917826E-001	5.886768519326484E-001
-7.1791685E-001	5.953945543754970E-001
-7.1693331E-001	6.020125158531284E-001
-7.1577561E-001	6.085781525406588E-001
-7.1511567E-001	6.152618476362122E-001
-7.1378070E-001	6.217230729487468E-001
-7.1317518E-001	6.284629208622166E-001
-7.1203303E-001	6.349135619698782E-001
-7.1126401E-001	6.417209906158625E-001
-7.0990050E-001	6.480400403616589E-001
-7.0968825E-001	6.545435726739539E-001
-7.0803720E-001	6.610188326211972E-001
-7.0698440E-001	6.675811909415081E-001
-7.0655978E-001	6.741773335748995E-001
-7.0528263E-001	6.808343961558982E-001
-7.0382112E-001	6.872186197864814E-001
-7.0284063E-001	6.937220718038635E-001
-7.0217019E-001	7.001086812190458E-001
-7.0073700E-001	7.064466318460525E-001
-7.0021880E-001	7.129909008045487E-001
-6.9913590E-001	7.195835229423322E-001
-6.9788420E-001	7.260515746575127E-001
-6.9711983E-001	7.324716802686435E-001
-6.9587505E-001	7.387929309021555E-001
-6.9507784E-001	7.452236760169235E-001
-6.9382441E-001	7.514634013727886E-001
-6.9265509E-001	7.579280954820113E-001
-6.9224197E-001	7.643689116651426E-001
-6.9072115E-001	7.707328868822927E-001
-6.8982595E-001	7.768886230058154E-001
-6.8898892E-001	7.833350528844303E-001
-6.8722326E-001	7.895555283736329E-001
-6.8715429E-001	7.959450022823535E-001
-6.8580645E-001	8.021473861126971E-001
-6.8510640E-001	8.085124216697821E-001
-6.8403995E-001	8.147911137153763E-001
-6.8277580E-001	8.209091383549887E-001
-6.8183279E-001	8.271095366389645E-001
-6.8114972E-001	8.333377322656874E-001
-6.7982721E-001	8.395899768780808E-001
-6.7951828E-001	8.456225748415331E-001
-6.7795581E-001	8.519180973687597E-001
-6.7683023E-001	8.580191925995884E-001
-6.7594779E-001	8.641800667952619E-001
-6.7566842E-001	8.703099228321740E-001
-6.7371881E-001	8.764273531183042E-001
-6.7310339E-001	8.824374372270825E-001
-6.7201394E-001	8.886769223544313E-001
-6.7114866E-001	8.946673929415372E-001
-6.7036235E-001	9.007854768635681E-001
-6.6872388E-001	9.066184956442420E-001
-6.6814005E-001	9.126130488735678E-001
-6.6729987E-001	9.189540098079552E-001
-6.6544771E-001	9.247553529286812E-001
-6.6495770E-001	9.308466972024356E-001
-6.6444486E-001	9.366704787911020E-001
-6.6309732E-001	9.426480731754374E-001
-6.6226262E-001	9.487415803251409E-001
-6.6141200E-001	9.546488778254769E-001
-6.5988928E-001	9.605973557465610E-001
-6.5871155E-001	9.664935597142916E-001
-6.5803325E-001	9.724059204260538E-001
-6.5683532E-001	9.781734815074339E-001
-6.5619069E-001	9.841620580937338E-001
-6.5462226E-001	9.899765660089486E-001
-6.5380359E-001	9.961899321664269E-001
-6.5329999E-001	1.001631351548134E+000
-6.5193242E-001	1.007339817230349E+000
-6.5080416E-001	1.013445381627040E+000
-6.5001011E-001	1.018988960340657E+000
-6.4877814E-001	1.024511962439178E+000
-6.4808315E-001	1.030490768314511E+000
-6.4701277E-001	1.036150468246425E+000
-6.4599293E-001	1.042017201306640E+000
-6.4523095E-001	1.047603388058132E+000
-6.4427972E-001	1.053036589175463E+000
-6.4337546E-001	1.058747518255755E+000
-6.4198399E-001	1.064273864008237E+000
-6.4128494E-001	1.069941527865550E+000
-6.4013875E-001	1.075415969998752E+000
-6.3919342E-001	1.081022741064727E+000
-6.3801688E-001	1.086618335710632E+000
-6.3711131E-001	1.092126817614936E+000
-6.3583821E-001	1.098322613307241E+000
-6.3486886E-001	1.105401199448998E+000
-6.3372558E-001	1.111003295721762E+000
-6.3291693E-001	1.116331710445659E+000
-6.3181877E-001	1.121535164338571E+000
-6.3085812E-001	1.126541704993501E+000
-6.2983507E-001	1.132740848456268E+000
-6.2887359E-001	1.137996172463454E+000
-6.2788475E-001	1.143414297471896E+000
-6.2688905E-001	1.148562282047891E+000
-6.2581962E-001	1.154061634430089E+000
-6.2507349E-001	1.159424988621911E+000
-6.2379497E-001	1.164355605150810E+000
-6.2281597E-001	1.170053345727190E+000
-6.2175161E-001	1.175188456420546E+000
-6.2077266E-001	1.180272076968793E+000
-6.1973745E-001	1.185582005301566E+000
-6.1880517E-001	1.190646488495442E+000
-6.1803281E-001	1.195988312225647E+000
-6.1674219E-001	1.201005666567855E+000
-6.1590028E-001	1.206187334739496E+000
-6.1503482E-001	1.211620585648001E+000
-6.1371875E-001	1.216301956188513E+000
-6.1277312E-001	1.221744384892560E+000
-6.1178237E-001	1.226961592909195E+000
-6.1086845E-001	1.231794392759056E+000
-6.0973078E-001	1.236635692417628E+000
-6.0886294E-001	1.241243824818961E+000
-6.0786444E-001	1.246592306566463E+000
-6.0690099E-001	1.251768117977513E+000
-6.0588574E-001	1.256547349343068E+000
-6.0480523E-001	1.261479819814365E+000
-6.0393548E-001	1.266047392730361E+000
-6.0300761E-001	1.271348216082577E+000
-6.0179955E-001	1.275915052603793E+000
-6.0078216E-001	1.280648792921387E+000
-5.9987897E-001	1.285520410972039E+000
-5.9885287E-001	1.290189024060968E+000
-5.9784979E-001	1.294825213344479E+000
-5.9692359E-001	1.299923786548550E+000
-5.9600210E-001	1.304289473151722E+000
-5.9493369E-001	1.309143412190529E+000
-5.9387404E-001	1.313710943416316E+000
-5.9280068E-001	1.318481817703562E+000
-5.9165800E-001	1.322743281644149E+000
-5.9069955E-001	1.327323815888830E+000
-5.8987141E-001	1.332151968170091E+000
-5.8881074E-001	1.336881990961779E+000
-5.8791769E-001	1.340598349493968E+000
-5.8674997E-001	1.345416282106402E+000
-5.8582079E-001	1.350394832729187E+000
-5.8496147E-001	1.354000104108341E+000
-5.8396947E-001	1.358827468036546E+000
-5.8281839E-001	1.363229653211656E+000
-5.8185595E-001	1.367423877395970E+000
-5.8095860E-001	1.371744601149587E+000
-5.7977223E-001	1.376217816714885E+000
-5.7862085E-001	1.380694593682332E+000
-5.7794034E-001	1.384538690822694E+000
-5.7701063E-001	1.388920375594388E+000
-5.7586718E-001	1.393250301204347E+000
-5.7490230E-001	1.397610767598657E+000
-5.7387745E-001	1.401448950999311E+000
-5.7298708E-001	1.405771720030768E+000
-5.7178354E-001	1.409465089716296E+000
-5.7064861E-001	1.413931961964679E+000
-5.6989640E-001	1.417831167749201E+000
-5.6871951E-001	1.421892570814602E+000
-5.6788158E-001	1.425814236341797E+000
-5.6684875E-001	1.429770772360484E+000
-5.6604671E-001	1.433515870460752E+000
-5.6481427E-001	1.436934376066482E+000
-5.6389827E-001	1.441391990763286E+000
-5.6281859E-001	1.445297292675129E+000
-5.6161141E-001	1.448711599878692E+000
-5.6072700E-001	1.453086771706836E+000
-5.5968803E-001	1.456277563478103E+000
-5.5894250E-001	1.460091943423125E+000
-5.5777401E-001	1.463643002565256E+000
-5.5692422E-001	1.467199608683579E+000
-5.5594033E-001	1.470626681560169E+000
-5.5492854E-001	1.474249649103037E+000
-5.5401790E-001	1.477731538867499E+000
-5.5300075E-001	1.481580625598693E+000
-5.5169231E-001	1.484995157492381E+000
-5.5067980E-001	1.488657776404310E+000
-5.4985136E-001	1.492240208700636E+000
-5.4877871E-001	1.495803590725973E+000
-5.4773974E-001	1.498285817633572E+000
-5.4687679E-001	1.501529517411086E+000
-5.4598206E-001	1.504978557979626E+000
-5.4506189E-001	1.508821401511206E+000
-5.4387176E-001	1.512065406474803E+000
-5.4298174E-001	1.515355039939834E+000
-5.4200959E-001	1.517879542710901E+000
-5.4076880E-001	1.521268885444716E+000
-5.4002917E-001	1.524462417181990E+000
-5.3869027E-001	1.527925856636313E+000
-5.3781092E-001	1.531004753929597E+000
-5.3682405E-001	1.534305055246314E+000
-5.3603029E-001	1.537109270589888E+000
-5.3488719E-001	1.539554597602951E+000
-5.3391588E-001	1.542276318829817E+000
-5.3301597E-001	1.545797812717935E+000
-5.3191251E-001	1.548211943910079E+000
-5.3094071E-001	1.551286982356473E+000
-5.2984571E-001	1.554385324595154E+000
-5.2891302E-001	1.556786752961299E+000
-5.2784860E-001	1.559409538490456E+000
-5.2693683E-001	1.562440302912833E+000
-5.2582318E-001	1.565620819727581E+000
-5.2497840E-001	1.567498540896620E+000
-5.2392566E-001	1.570687816098882E+000
-5.2295947E-001	1.573119529038704E+000
-5.2175587E-001	1.576046712420608E+000
-5.2077198E-001	1.578547181354629E+000
-5.1987970E-001	1.581156659182462E+000
-5.1884586E-001	1.583862609333458E+000
-5.1801771E-001	1.585910139260474E+000
-5.1699626E-001	1.588461822287748E+000
-5.1586062E-001	1.590778546752759E+000
-5.1495481E-001	1.593214709725643E+000
-5.1384032E-001	1.595710219814350E+000
-5.1286554E-001	1.597927626912231E+000
-5.1193643E-001	1.599812512596451E+000
-5.1074117E-001	1.602428247035128E+000
-5.0991547E-001	1.604895812493782E+000
-5.0877565E-001	1.607119886917221E+000
-5.0794464E-001	1.609854639128404E+000
-5.0682843E-001	1.611662927877028E+000
-5.0580174E-001	1.613333776605955E+000
-5.0480497E-001	1.615929304173704E+000
-5.0404364E-001	1.617852372703727E+000
-5.0297910E-001	1.619938297986092E+000
-5.0195414E-001	1.621894433818490E+000
-5.0095969E-001	1.624015289324298E+000
-5.0010073E-001	1.626489062534031E+000
-4.9913684E-001	1.627626998556980E+000
-4.9789187E-001	1.629772208631042E+000
-4.9689576E-001	1.631774347101530E+000
-4.9588305E-001	1.633783032220819E+000
-4.9511847E-001	1.635829231150982E+000
-4.9372506E-001	1.637872664464851E+000
-4.9299511E-001	1.639680600828592E+000
-4.9162006E-001	1.641300777500701E+000
-4.9090418E-001	1.643319430174653E+000
-4.8993862E-001	1.645032477599607E+000
-4.8901588E-001	1.646847049155710E+000
-4.8783958E-001	1.648782767355446E+000
-4.8684028E-001	1.650098316647389E+000
-4.8593906E-001	1.651441307270852E+000
-4.8515385E-001	1.653255222848166E+000
-4.8397908E-001	1.654972994884954E+000
-4.8290974E-001	1.656827527339818E+000
-4.8183638E-001	1.657202728368615E+000
-4.8091623E-001	1.659721326970711E+000
-4.7994930E-001	1.661035575524515E+000
-4.7899431E-001	1.662523925028463E+000
-4.7786227E-001	1.664120754464221E+000
-4.7676125E-001	1.666434691460047E+000
-4.7594434E-001	1.666951375427068E+000
-4.7491315E-001	1.669264039797461E+000
-4.7392845E-001	1.670076320844672E+000
-4.7305834E-001	1.672093695788476E+000
-4.7203022E-001	1.672806084782508E+000
-4.7083923E-001	1.674340909002005E+000
-4.6996555E-001	1.676114163328698E+000
-4.6886033E-001	1.676611159686688E+000
-4.6792850E-001	1.678602253949201E+000
-4.6687859E-001	1.679783154673526E+000
-4.6609080E-001	1.681396072937389E+000
-4.6479663E-001	1.682608944950282E+000
-4.6371156E-001	1.683549577323816E+000
-4.6295771E-001	1.685280973712601E+000
-4.6195284E-001	1.686787807003217E+000
-4.6091434E-001	1.687242203642043E+000
-4.6007127E-001	1.688591692734649E+000
-4.5901677E-001	1.689921385160198E+000
-4.5778432E-001	1.690583167504670E+000
-4.5694411E-001	1.691377445227566E+000
-4.5606530E-001	1.693044658069110E+000
-4.5494631E-001	1.694702911708099E+000
-4.5376453E-001	1.695644301672772E+000
-4.5309427E-001	1.696071396646554E+000
-4.5179999E-001	1.698143480552574E+000
-4.5098546E-001	1.698473956021996E+000
-4.4980079E-001	1.699133245727328E+000
-4.4875914E-001	1.700190711352555E+000
-4.4765398E-001	1.701761770027659E+000
-4.4696289E-001	1.702458741908762E+000
-4.4580147E-001	1.703478666367356E+000
-4.4498295E-001	1.704914845901151E+000
-4.4372326E-001	1.706472038946775E+000
-4.4287324E-001	1.706974940995380E+000
-4.4207335E-001	1.707957322392819E+000
-4.4092166E-001	1.708702997201016E+000
-4.3986440E-001	1.709759999480511E+000
-4.3886170E-001	1.710949857058104E+000
-4.3782228E-001	1.712055358345857E+000
-4.3707919E-001	1.712338755804083E+000
-4.3581787E-001	1.712766652065915E+000
-4.3490869E-001	1.713395058832791E+000
-4.3368152E-001	1.715412660329420E+000
-4.3304750E-001	1.716066553005284E+000
-4.3172953E-001	1.716705251899032E+000
-4.3092418E-001	1.718156354482780E+000
-4.3007880E-001	1.718122801019085E+000
-4.2886180E-001	1.719799497613199E+000
-4.2801091E-001	1.719582349008103E+000
-4.2675492E-001	1.721085193256540E+000
-4.2576134E-001	1.721618452557824E+000
-4.2501834E-001	1.721929136032749E+000
-4.2374358E-001	1.722931545089789E+000
-4.2301831E-001	1.724074046920858E+000
-4.2200869E-001	1.724534435793466E+000
-4.2080647E-001	1.725383344623779E+000
-4.2005873E-001	1.726172520330653E+000
-4.1883034E-001	1.727455006885356E+000
-4.1787404E-001	1.727941699601992E+000
-4.1701940E-001	1.727958730304753E+000
-4.1586542E-001	1.729387842394686E+000
-4.1479245E-001	1.730168199373617E+000
-4.1396001E-001	1.730785548951758E+000
-4.1282669E-001	1.731354680050305E+000
-4.1205856E-001	1.732594905076205E+000
-4.1109768E-001	1.732428003197896E+000
-4.1001493E-001	1.733677739622415E+000
-4.0892059E-001	1.734074119892381E+000
-4.0808263E-001	1.734198104919045E+000
-4.0701503E-001	1.733665215748329E+000
-4.0598196E-001	1.734132020308014E+000
-4.0484199E-001	1.735531335075701E+000
-4.0385684E-001	1.736548132366607E+000
-4.0312201E-001	1.737734252729510E+000
-4.0178290E-001	1.738261397790026E+000
-4.0110052E-001	1.738483231652676E+000
-3.9988795E-001	1.739508206744731E+000
-3.9880610E-001	1.739666161161889E+000
-3.9793000E-001	1.740309027885953E+000
-3.9682874E-001	1.741242261268901E+000
-3.9599165E-001	1.741097931508666E+000
-3.9491972E-001	1.742126252364230E+000
-3.9393938E-001	1.741292770074089E+000
-3.9287609E-001	1.742633572607131E+000
-3.9188862E-001	1.744345763922778E+000
-3.9102149E-001	1.745111987546636E+000
-3.9006028E-001	1.745629260385478E+000
-3.8894689E-001	1.745974250587278E+000
-3.8805971E-001	1.746958450862653E+000
-3.8693908E-001	1.747128776654058E+000
-3.8600489E-001	1.747463509154230E+000
-3.8494927E-001	1.748689969656645E+000
-3.8383541E-001	1.748775941630202E+000
-3.8290071E-001	1.749851287724589E+000
-3.8183782E-001	1.750189563466440E+000
-3.8084951E-001	1.750682156395030E+000
-3.7998465E-001	1.751429339717841E+000
-3.7882221E-001	1.752270959317693E+000
-3.7795129E-001	1.752591412701193E+000
-3.7691897E-001	1.753014047664628E+000
-3.7587872E-001	1.753241966444037E+000
-3.7510851E-001	1.754509781575033E+000
-3.7415349E-001	1.754351670819304E+000
-3.7282750E-001	1.755382958385688E+000
-3.7203515E-001	1.755337947204418E+000
-3.7085724E-001	1.756297299155499E+000
-3.7006134E-001	1.755890105609543E+000
-3.6891302E-001	1.757272417380552E+000
-3.6787328E-001	1.756974764168270E+000
-3.6692604E-001	1.757998296435648E+000
-3.6589494E-001	1.758249649571046E+000
-3.6503097E-001	1.758477106966355E+000
-3.6390272E-001	1.758969623416430E+000
-3.6283776E-001	1.760188587561799E+000
-3.6223447E-001	1.760102514039584E+000
-3.6090568E-001	1.760643082417428E+000
-3.6007819E-001	1.761294103606978E+000
-3.5907999E-001	1.761410742998123E+000
-3.5807496E-001	1.761795349717076E+000
-3.5712495E-001	1.761923831370147E+000
-3.5605839E-001	1.762755323339402E+000
-3.5498285E-001	1.762793752184717E+000
-3.5389429E-001	1.762823871440364E+000
-3.5288072E-001	1.764758645344187E+000
-3.5205978E-001	1.764035759424722E+000
-3.5106364E-001	1.765431109401916E+000
-3.5004207E-001	1.765333836753978E+000
-3.4913838E-001	1.766161786737267E+000
-3.4798822E-001	1.765835456550121E+000
-3.4684744E-001	1.766224799939437E+000
-3.4580311E-001	1.767104414050230E+000
-3.4506044E-001	1.767613307745373E+000
-3.4390837E-001	1.767979694322889E+000
-3.4288400E-001	1.768397116550695E+000
-3.4183738E-001	1.768482449705953E+000
-3.4093007E-001	1.768178164107113E+000
-3.4007186E-001	1.769200172413282E+000
-3.3914569E-001	1.769655222918220E+000
-3.3798385E-001	1.770235752341920E+000
-3.3676285E-001	1.770321827243867E+000
-3.3591756E-001	1.770578681495074E+000
-3.3499351E-001	1.771739068682543E+000
-3.3398101E-001	1.771901350882324E+000
-3.3277392E-001	1.772547456483265E+000
-3.3193502E-001	1.772527007869000E+000
-3.3063808E-001	1.773079921525941E+000
-3.2978073E-001	1.773087598552976E+000
-3.2886958E-001	1.773851221910228E+000
-3.2807913E-001	1.774093069408131E+000
-3.2684401E-001	1.774277773444297E+000
-3.2595879E-001	1.774708948201603E+000
-3.2478851E-001	1.775123373667931E+000
-3.2381821E-001	1.775184801055328E+000
-3.2301295E-001	1.775815756508603E+000
-3.2185698E-001	1.776607174195574E+000
-3.2072878E-001	1.776164291357555E+000
-3.2012525E-001	1.776270344025562E+000
-3.1897232E-001	1.776912607382698E+000
-3.1817177E-001	1.777343966342782E+000
-3.1693658E-001	1.777879174936693E+000
-3.1608921E-001	1.777751945429801E+000
-3.1475973E-001	1.778735890984535E+000
-3.1395397E-001	1.778884109119609E+000
-3.1303746E-001	1.779798929062153E+000
-3.1180713E-001	1.779354727930496E+000
-3.1090820E-001	1.780232040554797E+000
-3.0993956E-001	1.780091007826506E+000
-3.0897817E-001	1.779623208222571E+000
-3.0783466E-001	1.780730009730223E+000
-3.0685839E-001	1.780931407930677E+000
-3.0613127E-001	1.781537490586441E+000
-3.0481052E-001	1.782037796215214E+000
-3.0404329E-001	1.782087863319454E+000
-3.0310333E-001	1.782023469055140E+000
-3.0178455E-001	1.783451658888042E+000
-3.0098015E-001	1.782188007125146E+000
-3.0031690E-001	1.783037014986657E+000
-2.9879907E-001	1.783979382779862E+000
-2.9789242E-001	1.783773143534308E+000
-2.9709828E-001	1.784089134187390E+000
-2.9604289E-001	1.783977074755562E+000
-2.9510507E-001	1.784342769947318E+000
-2.9407582E-001	1.784793814025740E+000
-2.9318726E-001	1.785335107258071E+000
-2.9212025E-001	1.785671720626178E+000
-2.9105625E-001	1.786147915461520E+000
-2.8985196E-001	1.785500241650475E+000
-2.8879443E-001	1.786453037986318E+000
-2.8770524E-001	1.786113919483292E+000
-2.8700668E-001	1.787586826417179E+000
-2.8571695E-001	1.786809234187453E+000
-2.8482240E-001	1.787134089679633E+000
-2.8377810E-001	1.787335066055814E+000
-2.8309399E-001	1.787795742071673E+000
-2.8206033E-001	1.787804658766142E+000
-2.8096488E-001	1.788431735226396E+000
-2.7996331E-001	1.788538615421814E+000
-2.7902347E-001	1.789716335910342E+000
-2.7790919E-001	1.789312676147187E+000
-2.7701902E-001	1.789464958829279E+000
-2.7603337E-001	1.789909238064735E+000
-2.7486962E-001	1.790738830629014E+000
-2.7376169E-001	1.789865744610625E+000
-2.7295986E-001	1.790825612291135E+000
-2.7195579E-001	1.791282748323782E+000
-2.7096203E-001	1.790871607484640E+000
-2.6997584E-001	1.791082872008845E+000
-2.6890299E-001	1.791266986581924E+000
-2.6777014E-001	1.791750570690192E+000
-2.6721880E-001	1.792082589533585E+000
-2.6606742E-001	1.792631464180694E+000
-2.6499718E-001	1.792817992744627E+000
-2.6403329E-001	1.792285167508656E+000
-2.6307172E-001	1.792985938897367E+000
-2.6198754E-001	1.793372943721444E+000
-2.6089033E-001	1.793923778401773E+000
-2.5993118E-001	1.793622572388919E+000
-2.5891528E-001	1.793920356642328E+000
-2.5792611E-001	1.794372597497848E+000
-2.5684324E-001	1.795047825133352E+000
-2.5599959E-001	1.794533990047601E+000
-2.5512254E-001	1.795524390210367E+000
-2.5418061E-001	1.795343630843703E+000
-2.5326824E-001	1.795128768792864E+000
-2.5217673E-001	1.795861180350457E+000
-2.5105408E-001	1.795938772735767E+000
-2.4994813E-001	1.796015574583983E+000
-2.4891751E-001	1.797229847974251E+000
-2.4800280E-001	1.796478189527988E+000
-2.4675189E-001	1.797378701040010E+000
-2.4617130E-001	1.797311091312665E+000
-2.4505848E-001	1.797456445517362E+000
-2.4408789E-001	1.798317053889496E+000
-2.4312682E-001	1.798192050445968E+000
-2.4190055E-001	1.798304081239083E+000
-2.4101859E-001	1.798628643525692E+000
-2.3995532E-001	1.798752718777557E+000
-2.3896044E-001	1.798593527740906E+000
-2.3793671E-001	1.799202330014559E+000
-2.3684406E-001	1.799460850380086E+000
-2.3595409E-001	1.799937555623849E+000
-2.3491941E-001	1.799560026990044E+000
-2.3397483E-001	1.799839432868694E+000
-2.3284577E-001	1.800397640168768E+000
-2.3192929E-001	1.801035328871674E+000
-2.3094016E-001	1.800419205040844E+000
-2.2989398E-001	1.800667803018005E+000
-2.2887528E-001	1.801516591674755E+000
-2.2814408E-001	1.801801363903060E+000
-2.2681443E-001	1.801502245725098E+000
-2.2597255E-001	1.801098125952267E+000
-2.2488792E-001	1.802227357747379E+000
-2.2408484E-001	1.802209439712918E+000
-2.2306193E-001	1.802480613467871E+000
-2.2217497E-001	1.802869359552872E+000
-2.2108215E-001	1.803263722194572E+000
-2.2021350E-001	1.803413486867040E+000
-2.1906084E-001	1.803573711139311E+000
-2.1768872E-001	1.803626356577432E+000
-2.1712872E-001	1.804001744146699E+000
-2.1600010E-001	1.802842455457288E+000
-2.1517970E-001	1.804103695408074E+000
-2.1404375E-001	1.804679179081212E+000
-2.1318394E-001	1.805084391477745E+000
-2.1196131E-001	1.804440700069616E+000
-2.1099804E-001	1.804561535988967E+000
-2.1016480E-001	1.805176018288846E+000
-2.0920491E-001	1.805483281060503E+000
-2.0813932E-001	1.805346016442356E+000
-2.0697036E-001	1.806375397576229E+000
-2.0600115E-001	1.805101592231679E+000
-2.0517229E-001	1.806039846833549E+000
-2.0418003E-001	1.806077784410220E+000
-2.0310520E-001	1.806358256549736E+000
-2.0208456E-001	1.806284516975474E+000
-2.0120135E-001	1.806783507267632E+000
-2.0000072E-001	1.806824347763159E+000
-1.9919719E-001	1.807592434499668E+000
-1.9793800E-001	1.807976936024650E+000
-1.9710043E-001	1.809243137303731E+000
-1.9585086E-001	1.809127273382963E+000
-1.9515933E-001	1.808202696343265E+000
-1.9414431E-001	1.808735294491253E+000
-1.9311421E-001	1.808157222414460E+000
-1.9194558E-001	1.808960479442717E+000
-1.9109482E-001	1.808870252685843E+000
-1.9018301E-001	1.809077139529915E+000
-1.8925348E-001	1.809165574334285E+000
-1.8812899E-001	1.808823638265302E+000
-1.8719202E-001	1.810790788244318E+000
-1.8603379E-001	1.810844737898417E+000
-1.8502407E-001	1.810708488135234E+000
-1.8399060E-001	1.809886527834117E+000
-1.8310274E-001	1.810885034646326E+000
-1.8191344E-001	1.810095404585201E+000
-1.8105859E-001	1.810554014311893E+000
-1.7976385E-001	1.810874155634700E+000
-1.7906456E-001	1.811386039411587E+000
-1.7812061E-001	1.811230533376892E+000
-1.7708182E-001	1.813377437578545E+000
-1.7621061E-001	1.813051603182597E+000
-1.7523590E-001	1.813043702255799E+000
-1.7423895E-001	1.812078324457250E+000
-1.7318843E-001	1.812131721940315E+000
-1.7241164E-001	1.812363576361022E+000
-1.7119189E-001	1.813010542756988E+000
-1.6983894E-001	1.811984055848039E+000
-1.6906047E-001	1.812722700083370E+000
-1.6801719E-001	1.813201144613600E+000
-1.6680022E-001	1.814805909163422E+000
-1.6608594E-001	1.813323969512456E+000
-1.6523981E-001	1.813617727822733E+000
-1.6379564E-001	1.813488553795562E+000
-1.6310106E-001	1.813272428791151E+000
-1.6186698E-001	1.814539375956421E+000
-1.6110055E-001	1.813586688152062E+000
-1.6010717E-001	1.814377170841951E+000
-1.5917401E-001	1.814696972844779E+000
-1.5809639E-001	1.814826100918221E+000
-1.5706886E-001	1.815759649431267E+000
-1.5583895E-001	1.815546698040428E+000
-1.5507704E-001	1.814371126400934E+000
-1.5394126E-001	1.815160430691854E+000
-1.5310550E-001	1.815367481498805E+000
-1.5201154E-001	1.815014533234177E+000
-1.5126169E-001	1.815463136467663E+000
-1.5002881E-001	1.815557039446297E+000
-1.4924669E-001	1.815810441681524E+000
-1.4798898E-001	1.815965345060384E+000
-1.4691603E-001	1.815018348119878E+000
-1.4629364E-001	1.815587346092613E+000
-1.4515793E-001	1.816462132665844E+000
-1.4392301E-001	1.816154039480423E+000
-1.4303453E-001	1.816719337745948E+000
-1.4197178E-001	1.816731699638908E+000
-1.4111124E-001	1.816593101416306E+000
-1.4005625E-001	1.817278652279468E+000
-1.3892859E-001	1.817542690093868E+000
-1.3808315E-001	1.817556702071904E+000
-1.3695559E-001	1.816800053472875E+000
-1.3584340E-001	1.817912374933560E+000
-1.3492340E-001	1.818034017557338E+000
-1.3409209E-001	1.818093874664227E+000
-1.3300028E-001	1.818655364075894E+000
-1.3186453E-001	1.818032996246103E+000
-1.3099653E-001	1.818641692675925E+000
-1.2994786E-001	1.819027907620677E+000
-1.2910539E-001	1.819064933116792E+000
-1.2786041E-001	1.818915922608646E+000
-1.2708294E-001	1.819380689896100E+000
-1.2607154E-001	1.819321127677407E+000
-1.2513606E-001	1.819377103061591E+000
-1.2404483E-001	1.819966008832651E+000
-1.2301415E-001	1.819692555677008E+000
-1.2199466E-001	1.819628879703863E+000
-1.2098706E-001	1.820917326639055E+000
-1.2009443E-001	1.820281345535204E+000
-1.1914276E-001	1.820029664980304E+000
-1.1815368E-001	1.820486156476875E+000
-1.1703788E-001	1.820703476667401E+000
-1.1588003E-001	1.820386412165368E+000
-1.1503710E-001	1.821195067906828E+000
-1.1407806E-001	1.820489368780905E+000
-1.1309592E-001	1.821068887448958E+000
-1.1220011E-001	1.821079808252840E+000
-1.1116852E-001	1.822540005600004E+000
-1.0990477E-001	1.821956114905959E+000
-1.0928845E-001	1.822112717286309E+000
-1.0814359E-001	1.821154277909685E+000
-1.0708083E-001	1.821645195573424E+000
-1.0613941E-001	1.822017529772390E+000
-1.0502498E-001	1.822138644975901E+000
-1.0418996E-001	1.822121672056340E+000
-1.0305019E-001	1.823448235513986E+000
-1.0189907E-001	1.822788891839167E+000
-1.0102693E-001	1.822908935171593E+000
-9.9823318E-002	1.823093491020025E+000
-9.8891601E-002	1.823136501080366E+000
-9.8104239E-002	1.823726972772022E+000
-9.7164087E-002	1.823254395138328E+000
-9.6014827E-002	1.823110958475507E+000
-9.5117472E-002	1.823595014711220E+000
-9.3938150E-002	1.824096550979389E+000
-9.3356602E-002	1.823958391668624E+000
-9.2204340E-002	1.824113238740850E+000
-9.1037430E-002	1.823769303766136E+000
-9.0146281E-002	1.824345747077906E+000
-8.8964306E-002	1.824730017670877E+000
-8.8221125E-002	1.824839164507704E+000
-8.7191135E-002	1.824843012072421E+000
-8.5909665E-002	1.824377830105796E+000
-8.5114263E-002	1.825007476883656E+000
-8.3942816E-002	1.825591609433850E+000
-8.3156474E-002	1.825484261192658E+000
-8.2173891E-002	1.825751724150543E+000
-8.1101581E-002	1.824973561973483E+000
-8.0093801E-002	1.825349016592263E+000
-7.8933008E-002	1.825836810524820E+000
-7.8045473E-002	1.825539989052000E+000
-7.6811157E-002	1.825632809632862E+000
-7.5995043E-002	1.826105675487611E+000
-7.5089477E-002	1.825595312096446E+000
-7.4044228E-002	1.825530679401247E+000
-7.2992809E-002	1.825440431082697E+000
-7.2049685E-002	1.826411727126005E+000
-7.1012691E-002	1.826625203683291E+000
-7.0198454E-002	1.826500354817618E+000
-6.9321297E-002	1.826390226957976E+000
-6.7978747E-002	1.827182212325582E+000
-6.7265801E-002	1.826937985365035E+000
-6.6077493E-002	1.826795370946968E+000
-6.5011300E-002	1.827355823031180E+000
-6.4079210E-002	1.827852047703878E+000
-6.3178867E-002	1.826686567229515E+000
-6.2034942E-002	1.827517938006807E+000
-6.1190460E-002	1.827270502569511E+000
-6.0133465E-002	1.828265578289884E+000
-5.9069611E-002	1.828306917239121E+000
-5.8070056E-002	1.827883995517531E+000
-5.7018496E-002	1.827834559302289E+000
-5.6069277E-002	1.828565174230821E+000
-5.4968201E-002	1.828650231119900E+000
-5.4169673E-002	1.828664826298208E+000
-5.3280652E-002	1.827925089056852E+000
-5.2207764E-002	1.829277222618789E+000
-5.1135197E-002	1.828993011128020E+000
-4.9952369E-002	1.828826130264329E+000
-4.9136035E-002	1.829371647513376E+000
-4.7975767E-002	1.829429185224910E+000
-4.7084197E-002	1.830197720891906E+000
-4.6096016E-002	1.829917238581963E+000
-4.4904161E-002	1.830143155599082E+000
-4.4107623E-002	1.829626158707669E+000
-4.2978257E-002	1.829833685775885E+000
-4.1875616E-002	1.829716976318089E+000
-4.1089982E-002	1.829641716297621E+000
-4.0087808E-002	1.830275495847072E+000
-3.9255422E-002	1.830154664814475E+000
-3.7945636E-002	1.829862525329318E+000
-3.7141785E-002	1.831030430617147E+000
-3.6048271E-002	1.830436389755324E+000
-3.5257790E-002	1.830470881996149E+000
-3.4038786E-002	1.830011474037613E+000
-3.3222519E-002	1.831067106790012E+000
-3.2093212E-002	1.831023528351878E+000
-3.0944269E-002	1.831471567628563E+000
-3.0146884E-002	1.831490095290874E+000
-2.9158792E-002	1.830436372778555E+000
-2.8013943E-002	1.831782951675083E+000
-2.7050346E-002	1.831070096027911E+000
-2.6055584E-002	1.830944897124062E+000
-2.5079370E-002	1.831725563164110E+000
-2.4152888E-002	1.831084877797764E+000
-2.3077736E-002	1.831450968152954E+000
-2.2002675E-002	1.831101730741832E+000
-2.1207351E-002	1.831645662762650E+000
-2.0051951E-002	1.831749321685890E+000
-1.9114558E-002	1.831590221987835E+000
-1.8119203E-002	1.831942816281250E+000
-1.7190350E-002	1.832230162289406E+000
-1.5975412E-002	1.832458931587535E+000
-1.4995680E-002	1.831931970185705E+000
-1.4047897E-002	1.832189517440618E+000
-1.3347425E-002	1.832238802965000E+000
-1.2250116E-002	1.832869300411808E+000
-1.1078536E-002	1.832418278411591E+000
-1.0199228E-002	1.832588827898896E+000
-9.0807192E-003	1.831906713269380E+000
-7.9939915E-003	1.832230070950805E+000
-7.0630419E-003	1.832587318656230E+000
-6.1713923E-003	1.833136967486805E+000
-5.2340012E-003	1.833111837506301E+000
-4.0946649E-003	1.832773841197653E+000
-3.1691529E-003	1.832679097851109E+000
-2.1534131E-003	1.832981526732372E+000
-1.0970922E-003	1.833618685603135E+000
3.2274176E-005	1.833266307910279E+000
9.9270733E-004	1.833146789863772E+000
1.7935674E-003	1.833151677416424E+000
2.7899295E-003	1.833817661912345E+000
3.7602843E-003	1.834426080310291E+000
4.8889294E-003	1.834155123818803E+000
5.8216541E-003	1.834300116808336E+000
6.5072766E-003	1.834016567622422E+000
6.4370367E-003	1.832987698641691E+000