EC-Lab ASCII FILE
Nb header lines : 63                          

Linear Sweep Voltammetry

Run on channel : 6 (SN 13765)
User : 
Electrode connection : standard
Potential control : Ewe
Ewe ctrl range : min = -2.50 V, max = 2.50 V
Ewe,I filtering : <None>
Safety Limits :
	Do not start on E overload
Channel : Floating
Acquisition started on : 07/17/2026 15:15:38.550
Technique started on : 07/17/2026 15:15:39.547
Loaded Setting File :  C:\Users\EEM-620\Desktop\Wade\abao\20260629\N719_0629-0-1_C06.mpr
Saved on :
	File : N719_0717-d-2_C06.mpr
	Directory : C:\Users\EEM-620\Desktop\Wade\abao\20260717\
	Host : 192.109.209.200
Device : VSP-300 (SN 0025)
Address : 192.109.209.129
EC-LAB for windows v11.62 (software)
Internet server v27.00 (firmware)
Command interpretor v12.02 (firmware)
Electrode material : Au/Pd
Initial state : 
Electrolyte : NaCl (0.2M)
Comments : Fe(CN)63-/Fe(CN)64- 5.10-3 M
Cable : ULC
Reference electrode : SCE Saturated Calomel Electrode (0.241 V)
Electrode surface area : 0.001 cm2
Characteristic mass : 0.001 g
Equivalent Weight : 0.000 g/eq.
Density : 0.000 g/cm3
Volume (V) : 0.001 cm3
Cycle Definition : Charge/Discharge alternance
tR (h:m:s)          0:00:5.0000         
dER/dt (mV/h)       0.0                 
dER (mV)            0                   
dtR (s)             0.0500              
dE/dt               10.000              
dE/dt unit          mV/s                
Ei (V)              -0.800              
vs.                 Ref                 
EL (V)              0.010               
vs.                 Ref                 
record              <I>                 
dI                  0.000               
unit dI             uA                  
tI (s)              0.0000              
step percent        50                  
N                   10                  
E range min (V)     -2.500              
E range max (V)     2.500               
I Range             Auto                
I Range min         Unset               
I Range max         Unset               
I Range init        Unset               
Bandwidth           8                   

Ewe/V	<I>/mA	
-8.0767643E-001	0.000000000000000E+000
-8.0797046E-001	0.000000000000000E+000
-8.0759627E-001	0.000000000000000E+000
-8.0692810E-001	0.000000000000000E+000
-8.0806977E-001	0.000000000000000E+000
-8.0844778E-001	0.000000000000000E+000
-8.0847067E-001	0.000000000000000E+000
-8.0761153E-001	0.000000000000000E+000
-8.0798197E-001	0.000000000000000E+000
-8.0801243E-001	0.000000000000000E+000
-8.0800098E-001	0.000000000000000E+000
-8.0831027E-001	0.000000000000000E+000
-8.0765355E-001	0.000000000000000E+000
-8.0771464E-001	0.000000000000000E+000
-8.0741680E-001	0.000000000000000E+000
-8.0819577E-001	0.000000000000000E+000
-8.0760777E-001	0.000000000000000E+000
-8.0816138E-001	0.000000000000000E+000
-8.0771846E-001	0.000000000000000E+000
-8.0803537E-001	0.000000000000000E+000
-8.0763447E-001	0.000000000000000E+000
-8.0752748E-001	0.000000000000000E+000
-8.0818433E-001	0.000000000000000E+000
-8.0713040E-001	0.000000000000000E+000
-8.0785972E-001	0.000000000000000E+000
-8.0733657E-001	0.000000000000000E+000
-8.0736339E-001	0.000000000000000E+000
-8.0834466E-001	0.000000000000000E+000
-8.0865008E-001	0.000000000000000E+000
-8.0800486E-001	0.000000000000000E+000
-8.0719537E-001	0.000000000000000E+000
-8.0752754E-001	0.000000000000000E+000
-8.0792844E-001	0.000000000000000E+000
-8.0876845E-001	0.000000000000000E+000
-8.0730611E-001	0.000000000000000E+000
-8.0763829E-001	0.000000000000000E+000
-8.0803156E-001	0.000000000000000E+000
-8.0711520E-001	0.000000000000000E+000
-8.0772609E-001	0.000000000000000E+000
-8.0761153E-001	0.000000000000000E+000
-8.0797809E-001	0.000000000000000E+000
-8.0760771E-001	0.000000000000000E+000
-8.0732512E-001	0.000000000000000E+000
-8.0742830E-001	0.000000000000000E+000
-8.0821866E-001	0.000000000000000E+000
-8.0743212E-001	0.000000000000000E+000
-8.0675626E-001	0.000000000000000E+000
-8.0790555E-001	0.000000000000000E+000
-8.0707699E-001	0.000000000000000E+000
-8.0810791E-001	0.000000000000000E+000
-8.0768406E-001	0.000000000000000E+000
-8.0809265E-001	0.000000000000000E+000
-8.0809265E-001	0.000000000000000E+000
-8.0741298E-001	0.000000000000000E+000
-8.0762684E-001	0.000000000000000E+000
-8.0721444E-001	0.000000000000000E+000
-8.0760008E-001	0.000000000000000E+000
-8.0723351E-001	0.000000000000000E+000
-8.0683261E-001	0.000000000000000E+000
-8.0797046E-001	0.000000000000000E+000
-8.0749696E-001	0.000000000000000E+000
-8.1327790E-001	0.000000000000000E+000
-8.1340390E-001	0.000000000000000E+000
-7.8947848E-001	1.608044846469293E-002
-7.8978670E-001	1.625857688348308E-002
-7.8857458E-001	1.684915443615027E-002
-7.8749186E-001	1.755750701003883E-002
-7.8615677E-001	1.829672810447594E-002
-7.8531063E-001	1.899562366263666E-002
-7.8440630E-001	1.972150043501443E-002
-7.8328985E-001	2.047322493227619E-002
-7.8201687E-001	2.116891959923561E-002
-7.8139603E-001	2.185272118344744E-002
-7.8036284E-001	2.258406177861610E-002
-7.7916372E-001	2.329325562136036E-002
-7.7850831E-001	2.397715753009633E-002
-7.7725893E-001	2.467610777562679E-002
-7.7618021E-001	2.538297223185926E-002
-7.7516508E-001	2.608577250766941E-002
-7.7504736E-001	2.675140940549747E-002
-7.7319062E-001	2.742355786880979E-002
-7.7219212E-001	2.810175619001887E-002
-7.7119064E-001	2.880563376109210E-002
-7.7067316E-001	2.945780133356823E-002
-7.6951820E-001	3.012549040269941E-002
-7.6869243E-001	3.082305770712324E-002
-7.6704389E-001	3.145280137786119E-002
-7.6642507E-001	3.212793084309878E-002
-7.6512533E-001	3.275681741501185E-002
-7.6446694E-001	3.340064038549817E-002
-7.6303566E-001	3.407610181494863E-002
-7.6274735E-001	3.472136436202733E-002
-7.6112747E-001	3.537927869425694E-002
-7.6050353E-001	3.600566046036516E-002
-7.5910568E-001	3.666070120716251E-002
-7.5823712E-001	3.728558823328323E-002
-7.5752676E-001	3.793357257489804E-002
-7.5638217E-001	3.856747530954857E-002
-7.5541860E-001	3.918206717180850E-002
-7.5448668E-001	3.981458767386254E-002
-7.5345618E-001	4.044974234352031E-002
-7.5241101E-001	4.109243288015331E-002
-7.5119096E-001	4.172741937778740E-002
-7.5043452E-001	4.237104650194373E-002
-7.4949390E-001	4.296955464114609E-002
-7.4859339E-001	4.359638076384109E-002
-7.4741352E-001	4.421445848937677E-002
-7.4637288E-001	4.485432815272380E-002
-7.4539495E-001	4.547115383340666E-002
-7.4435157E-001	4.610214513053901E-002
-7.4385345E-001	4.671713650330073E-002
-7.4213952E-001	4.733574177661537E-002
-7.4126571E-001	4.795586099175542E-002
-7.4043667E-001	4.860222912652223E-002
-7.3977000E-001	4.920725363116985E-002
-7.3834234E-001	4.984534309349109E-002
-7.3723543E-001	5.047367636493805E-002
-7.3683673E-001	5.109291020207085E-002
-7.3582786E-001	5.171020238453300E-002
-7.3434985E-001	5.235102593559926E-002
-7.3348147E-001	5.297722041399933E-002
-7.3229653E-001	5.360652990984160E-002
-7.3142576E-001	5.423080350346088E-002
-7.3061287E-001	5.483245300301509E-002
-7.2905016E-001	5.547354626469303E-002
-7.2822720E-001	5.609756937514243E-002
-7.2729385E-001	5.673124742073332E-002
-7.2653037E-001	5.735421325597501E-002
-7.2550738E-001	5.796932904298213E-002
-7.2399801E-001	5.864371107546229E-002
-7.2362852E-001	5.923399191211753E-002
-7.2240955E-001	5.987154455606514E-002
-7.2157574E-001	6.049682562998320E-002
-7.2059947E-001	6.111790629073476E-002
-7.1958685E-001	6.178550830076426E-002
-7.1871775E-001	6.241719873139140E-002
-7.1741080E-001	6.304524344033213E-002
-7.1645892E-001	6.366945250408262E-002
-7.1529448E-001	6.429582312530679E-002
-7.1447098E-001	6.497644419960702E-002
-7.1298629E-001	6.558068877051554E-002
-7.1226680E-001	6.622960904820085E-002
-7.1121609E-001	6.689536443879818E-002
-7.1038693E-001	6.752139455811312E-002
-7.0942026E-001	6.815528873940596E-002
-7.0859683E-001	6.880123700928564E-002
-7.0779306E-001	6.944742296063522E-002
-7.0619267E-001	7.008007415891493E-002
-7.0520830E-001	7.071702083124354E-002
-7.0422417E-001	7.134604960231572E-002
-7.0336431E-001	7.201670106624376E-002
-7.0215046E-001	7.264686548323540E-002
-7.0137066E-001	7.329595683108026E-002
-7.0058894E-001	7.399099833839107E-002
-6.9945264E-001	7.465404857605440E-002
-6.9838619E-001	7.527642494446973E-002
-6.9733799E-001	7.593951302341156E-002
-6.9610864E-001	7.656919825994590E-002
-6.9505835E-001	7.724227031846727E-002
-6.9436663E-001	7.788927627175468E-002
-6.9343543E-001	7.854812048996473E-002
-6.9247520E-001	7.920369707344177E-002
-6.9113237E-001	7.986479860523499E-002
-6.9016325E-001	8.050069355198908E-002
-6.8942088E-001	8.113642139489263E-002
-6.8825120E-001	8.180797154394293E-002
-6.8736362E-001	8.247005230643681E-002
-6.8621927E-001	8.316239636629003E-002
-6.8526971E-001	8.383673922745172E-002
-6.8458903E-001	8.446983191081209E-002
-6.8340468E-001	8.513039107267351E-002
-6.8238580E-001	8.579694345179545E-002
-6.8139219E-001	8.645967340304195E-002
-6.8029386E-001	8.713408280164003E-002
-6.7958027E-001	8.782296309558046E-002
-6.7841351E-001	8.847336790183746E-002
-6.7735034E-001	8.915088547359207E-002
-6.7649150E-001	8.980951907492685E-002
-6.7529166E-001	9.047627786762913E-002
-6.7437422E-001	9.114636964578615E-002
-6.7355579E-001	9.179316486956321E-002
-6.7224997E-001	9.248743076784982E-002
-6.7160237E-001	9.313460749022129E-002
-6.7014605E-001	9.381109405343718E-002
-6.6951931E-001	9.450890097974082E-002
-6.6861880E-001	9.514054172258413E-002
-6.6735089E-001	9.584353222842645E-002
-6.6628200E-001	9.656961251878093E-002
-6.6572237E-001	9.724347981520803E-002
-6.6457051E-001	9.782589727164126E-002
-6.6347146E-001	9.851202742989962E-002
-6.6242766E-001	9.916272728393533E-002
-6.6133064E-001	9.980300159214428E-002
-6.6054225E-001	1.004429854866533E-001
-6.5937382E-001	1.011469288280721E-001
-6.5843827E-001	1.017921535553865E-001
-6.5745264E-001	1.024737099220077E-001
-6.5665561E-001	1.031353098780516E-001
-6.5532333E-001	1.038246820335862E-001
-6.5431529E-001	1.044737441913675E-001
-6.5383339E-001	1.051139112283790E-001
-6.5252978E-001	1.057836042406660E-001
-6.5131199E-001	1.064744065170767E-001
-6.5046835E-001	1.071580474773763E-001
-6.4901543E-001	1.078161786448346E-001
-6.4868200E-001	1.084405372298702E-001
-6.4710939E-001	1.092307308197231E-001
-6.4596486E-001	1.099436888643716E-001
-6.4450061E-001	1.105829892906376E-001
-6.4473939E-001	1.112677429423292E-001
-6.4323777E-001	1.119033321910713E-001
-6.4261603E-001	1.126500536072299E-001
-6.4084947E-001	1.133486404497591E-001
-6.3993621E-001	1.139531954605547E-001
-6.3940400E-001	1.145711346617024E-001
-6.3822758E-001	1.152001478950735E-001
-6.3712531E-001	1.159597911734003E-001
-6.3596094E-001	1.165783384300572E-001
-6.3538098E-001	1.172234359438773E-001
-6.3394582E-001	1.178752262040099E-001
-6.3359910E-001	1.184394587072788E-001
-6.3196146E-001	1.191659534556999E-001
-6.3118273E-001	1.197373171039404E-001
-6.3008243E-001	1.204205125880733E-001
-6.2897432E-001	1.211199051079652E-001
-6.2815833E-001	1.217381701471949E-001
-6.2724632E-001	1.224334654570731E-001
-6.2603909E-001	1.230531223635707E-001
-6.2557143E-001	1.236077616708673E-001
-6.2376463E-001	1.243739391470118E-001
-6.2287819E-001	1.248893659665355E-001
-6.2232208E-001	1.254874364789362E-001
-6.2042564E-001	1.262820522749318E-001
-6.2014562E-001	1.268010721080953E-001
-6.1916661E-001	1.274660351962122E-001
-6.1831069E-001	1.280713389903584E-001
-6.1719209E-001	1.286744591718532E-001
-6.1613077E-001	1.293674109469135E-001
-6.1534238E-001	1.300052210723082E-001
-6.1402369E-001	1.306282888138020E-001
-6.1315960E-001	1.312732818639946E-001
-6.1225700E-001	1.318612652140905E-001
-6.1087471E-001	1.324292115408050E-001
-6.1024433E-001	1.330917757176963E-001
-6.0944301E-001	1.337058575175061E-001
-6.0792261E-001	1.343829799960892E-001
-6.0721403E-001	1.348444123200516E-001
-6.0551584E-001	1.355425898410281E-001
-6.0512275E-001	1.361591821467434E-001
-6.0427040E-001	1.367799196461290E-001
-6.0331988E-001	1.373668800556858E-001
-6.0247749E-001	1.380247897123563E-001
-6.0134155E-001	1.385680473995985E-001
-6.0025692E-001	1.392498442855421E-001
-5.9918022E-001	1.398613572431116E-001
-5.9822452E-001	1.403968679822150E-001
-5.9715831E-001	1.410695929645100E-001
-5.9609354E-001	1.415968850703426E-001
-5.9496373E-001	1.422919440408918E-001
-5.9437978E-001	1.428058763827988E-001
-5.9314054E-001	1.433780010168750E-001
-5.9202820E-001	1.439782408015622E-001
-5.9129220E-001	1.446036811987006E-001
-5.9044206E-001	1.451372626685981E-001
-5.8920342E-001	1.457444893894301E-001
-5.8825266E-001	1.463225944726556E-001
-5.8721381E-001	1.469288428003588E-001
-5.8624804E-001	1.474216771948007E-001
-5.8507091E-001	1.480780665210830E-001
-5.8420461E-001	1.486541050727722E-001
-5.8324242E-001	1.491652468381375E-001
-5.8215952E-001	1.497984934356751E-001
-5.8117539E-001	1.502799131835038E-001
-5.8016449E-001	1.509434269327262E-001
-5.7891500E-001	1.514810937008376E-001
-5.7822007E-001	1.520241956714692E-001
-5.7696325E-001	1.526436547541787E-001
-5.7589477E-001	1.532580896142730E-001
-5.7554162E-001	1.537923222501911E-001
-5.7439202E-001	1.543545997356646E-001
-5.7296932E-001	1.548315861124405E-001
-5.7208282E-001	1.554370844038195E-001
-5.7107437E-001	1.559721228011227E-001
-5.7036078E-001	1.565010097058610E-001
-5.6936955E-001	1.570916892443273E-001
-5.6838626E-001	1.576255556816856E-001
-5.6703210E-001	1.580683449524335E-001
-5.6633085E-001	1.586632096829521E-001
-5.6485051E-001	1.592083866880449E-001
-5.6431645E-001	1.597890815182699E-001
-5.6298274E-001	1.603604854705432E-001
-5.6164938E-001	1.608768148623683E-001
-5.6120586E-001	1.614094975477099E-001
-5.6032413E-001	1.619585290447706E-001
-5.5934590E-001	1.624911167762346E-001
-5.5841964E-001	1.629422407840257E-001
-5.5703729E-001	1.635468559063695E-001
-5.5575526E-001	1.641461417925313E-001
-5.5548894E-001	1.645403954683358E-001
-5.5426455E-001	1.650988057738658E-001
-5.5300516E-001	1.656500129731382E-001
-5.5236518E-001	1.662024253875844E-001
-5.5120188E-001	1.666729178762552E-001
-5.5051941E-001	1.672758721645766E-001
-5.4910094E-001	1.677683043224669E-001
-5.4831678E-001	1.682762021233357E-001
-5.4724342E-001	1.687553185146036E-001
-5.4665154E-001	1.693281656027665E-001
-5.4528439E-001	1.697557450927520E-001
-5.4406673E-001	1.702685079097921E-001
-5.4308969E-001	1.706578695663703E-001
-5.4207247E-001	1.711863990335782E-001
-5.4137546E-001	1.717331523800067E-001
-5.4010731E-001	1.723670070232066E-001
-5.3888595E-001	1.726762534069202E-001
-5.3857774E-001	1.731920138829284E-001
-5.3704357E-001	1.737387268804023E-001
-5.3601009E-001	1.742747325900433E-001
-5.3531039E-001	1.747522012468559E-001
-5.3414446E-001	1.751611900895287E-001
-5.3314537E-001	1.757374066314599E-001
-5.3256774E-001	1.762453094469727E-001
-5.3112668E-001	1.767762050768571E-001
-5.3009307E-001	1.771407624948083E-001
-5.2948684E-001	1.776798434245084E-001
-5.2857512E-001	1.781069558284387E-001
-5.2716565E-001	1.786455631221608E-001
-5.2625334E-001	1.791458802849606E-001
-5.2533942E-001	1.796180558458285E-001
-5.2414441E-001	1.801211330177326E-001
-5.2349514E-001	1.804989795890393E-001
-5.2229351E-001	1.809897952123607E-001
-5.2103734E-001	1.815111416530000E-001
-5.2016062E-001	1.818885177339391E-001
-5.1882243E-001	1.824993705709153E-001
-5.1795083E-001	1.828766258571437E-001
-5.1732659E-001	1.834238977403997E-001
-5.1602244E-001	1.838418602667464E-001
-5.1549315E-001	1.843648281258845E-001
-5.1444709E-001	1.847527262987931E-001
-5.1320493E-001	1.852621948863895E-001
-5.1252973E-001	1.857351571217993E-001
-5.1077378E-001	1.862132450189806E-001
-5.1041651E-001	1.866510190690558E-001
-5.0908053E-001	1.871102747024491E-001
-5.0783503E-001	1.875107069262163E-001
-5.0739461E-001	1.879225719754620E-001
-5.0613886E-001	1.883977796929106E-001
-5.0487256E-001	1.888662134469657E-001
-5.0443643E-001	1.893933241566022E-001
-5.0318640E-001	1.897833787161172E-001
-5.0202519E-001	1.902654076305526E-001
-5.0116187E-001	1.906175215521615E-001
-5.0062525E-001	1.911042544487622E-001
-4.9918073E-001	1.915444107726212E-001
-4.9799436E-001	1.919622765509059E-001
-4.9737889E-001	1.923705566660221E-001
-4.9647847E-001	1.928207948458969E-001
-4.9549317E-001	1.932981231387840E-001
-4.9395114E-001	1.937531548446134E-001
-4.9322021E-001	1.940891996060534E-001
-4.9214169E-001	1.945820985586071E-001
-4.9089506E-001	1.949804781556690E-001
-4.9045768E-001	1.954012001623160E-001
-4.8934540E-001	1.957295558864076E-001
-4.8764849E-001	1.963243142322257E-001
-4.8739347E-001	1.966397061392122E-001
-4.8612285E-001	1.970548592835801E-001
-4.8536554E-001	1.975303544766374E-001
-4.8437634E-001	1.979866193400498E-001
-4.8314738E-001	1.983635258730093E-001
-4.8220208E-001	1.987614102868562E-001
-4.8094293E-001	1.992021441735607E-001
-4.8061219E-001	1.996139713732488E-001
-4.7952351E-001	2.000483057151237E-001
-4.7813442E-001	2.005078554249518E-001
-4.7739977E-001	2.008534719201691E-001
-4.7647169E-001	2.012911056409825E-001
-4.7506842E-001	2.017818328105228E-001
-4.7430858E-001	2.019620274228078E-001
-4.7322318E-001	2.024136433998756E-001
-4.7255427E-001	2.029078603300064E-001
-4.7079152E-001	2.032881410171592E-001
-4.7017595E-001	2.036686765236988E-001
-4.6912354E-001	2.040152307197256E-001
-4.6847153E-001	2.044213613909154E-001
-4.6716735E-001	2.048668394693067E-001
-4.6560821E-001	2.052246968182407E-001
-4.6525013E-001	2.057177708656693E-001
-4.6426904E-001	2.060148688404175E-001
-4.6296656E-001	2.064614821294386E-001
-4.6203789E-001	2.068562610419815E-001
-4.6077284E-001	2.073007743221083E-001
-4.6022022E-001	2.076341937192610E-001
-4.5882052E-001	2.080782294894270E-001
-4.5835108E-001	2.083539860198016E-001
-4.5717740E-001	2.088559543437976E-001
-4.5645684E-001	2.091584402239990E-001
-4.5533475E-001	2.095539557468962E-001
-4.5435929E-001	2.099830034982280E-001
-4.5331210E-001	2.104698741647830E-001
-4.5208317E-001	2.107764459387584E-001
-4.5119566E-001	2.111294813523132E-001
-4.5052484E-001	2.116040094451339E-001
-4.4939595E-001	2.119483784255067E-001
-4.4794670E-001	2.123055102786537E-001
-4.4721586E-001	2.127766922725730E-001
-4.4627109E-001	2.130552133614265E-001
-4.4519880E-001	2.134634751343603E-001
-4.4410643E-001	2.137368973322324E-001
-4.4310722E-001	2.141119722897815E-001
-4.4230917E-001	2.145707539662167E-001
-4.4131452E-001	2.149013976720973E-001
-4.4010156E-001	2.152178512403271E-001
-4.3895715E-001	2.156093620844666E-001
-4.3792790E-001	2.160053228338557E-001
-4.3708619E-001	2.164459241623127E-001
-4.3658516E-001	2.167719465549259E-001
-4.3545136E-001	2.171008765559501E-001
-4.3417305E-001	2.174850356316673E-001
-4.3318582E-001	2.178925637988516E-001
-4.3228874E-001	2.182839751864476E-001
-4.3118650E-001	2.186274476073411E-001
-4.3041375E-001	2.190011055428638E-001
-4.2898804E-001	2.193523686793117E-001
-4.2811751E-001	2.196664791590589E-001
-4.2737713E-001	2.200381242566634E-001
-4.2585254E-001	2.203696012772900E-001
-4.2550030E-001	2.207430092844094E-001
-4.2405757E-001	2.210552527189802E-001
-4.2308494E-001	2.214591476238432E-001
-4.2231375E-001	2.217412944962165E-001
-4.2142293E-001	2.222031424235977E-001
-4.1960159E-001	2.225023237298496E-001
-4.1910610E-001	2.229224368601894E-001
-4.1837865E-001	2.232138673533447E-001
-4.1718885E-001	2.235688739283768E-001
-4.1640097E-001	2.239198744635962E-001
-4.1495049E-001	2.242338479737989E-001
-4.1439435E-001	2.245943710902468E-001
-4.1335788E-001	2.250759036935597E-001
-4.1238561E-001	2.252790699540461E-001
-4.1140786E-001	2.257001332920696E-001
-4.0980577E-001	2.259846419027021E-001
-4.0931275E-001	2.263608698008783E-001
-4.0845108E-001	2.267143706439720E-001
-4.0684724E-001	2.269175270296353E-001
-4.0630612E-001	2.274136955470405E-001
-4.0543607E-001	2.276953158467022E-001
-4.0442660E-001	2.280025671546659E-001
-4.0333697E-001	2.283735451874920E-001
-4.0213269E-001	2.286008202760290E-001
-4.0170318E-001	2.290401147264572E-001
-4.0040672E-001	2.293818053856747E-001
-3.9926240E-001	2.296698967822719E-001
-3.9846647E-001	2.300283743275539E-001
-3.9772868E-001	2.303758493989658E-001
-3.9615411E-001	2.306859876822536E-001
-3.9537767E-001	2.310008305573339E-001
-3.9410940E-001	2.313909749133858E-001
-3.9363402E-001	2.317078338453067E-001
-3.9203477E-001	2.320796161269145E-001
-3.9109218E-001	2.323347145913908E-001
-3.9015108E-001	2.326966829735929E-001
-3.8902754E-001	2.330228455094385E-001
-3.8814926E-001	2.332577483935485E-001
-3.8727930E-001	2.336257748926678E-001
-3.8610604E-001	2.339872258053478E-001
-3.8530293E-001	2.343745293026709E-001
-3.8411584E-001	2.346688365494771E-001
-3.8323012E-001	2.348797546115797E-001
-3.8257453E-001	2.351913844338718E-001
-3.8137075E-001	2.355365085725984E-001
-3.8041848E-001	2.358218511483967E-001
-3.7938222E-001	2.362004290507356E-001
-3.7809142E-001	2.364714079088093E-001
-3.7730438E-001	2.367722740179095E-001
-3.7621793E-001	2.370806528531300E-001
-3.7522137E-001	2.374048846093559E-001
-3.7427610E-001	2.377052206753030E-001
-3.7324366E-001	2.380243325950926E-001
-3.7219372E-001	2.383709295386858E-001
-3.7112093E-001	2.386202730790332E-001
-3.7035751E-001	2.389356939604993E-001
-3.6904338E-001	2.392259290864707E-001
-3.6860889E-001	2.395976094046102E-001
-3.6706147E-001	2.398866499877643E-001
-3.6620554E-001	2.402374847386231E-001
-3.6530209E-001	2.404744398469720E-001
-3.6398304E-001	2.408361352497232E-001
-3.6340120E-001	2.411219877987234E-001
-3.6205354E-001	2.414306779219597E-001
-3.6089370E-001	2.417451778370192E-001
-3.6059347E-001	2.419984863933040E-001
-3.5940090E-001	2.423201731440656E-001
-3.5793549E-001	2.426193736799069E-001
-3.5724545E-001	2.429339974704723E-001
-3.5620856E-001	2.432781254734717E-001
-3.5549194E-001	2.435075566265481E-001
-3.5453761E-001	2.438648248574258E-001
-3.5314310E-001	2.441512543570115E-001
-3.5218304E-001	2.444158347953848E-001
-3.5163727E-001	2.447804196703212E-001
-3.5049936E-001	2.450827278748706E-001
-3.4918821E-001	2.453219066201533E-001
-3.4841654E-001	2.455265440943628E-001
-3.4723434E-001	2.457930795907419E-001
-3.4573966E-001	2.460098381809610E-001
-3.4609243E-001	2.461793534112755E-001
-3.4468743E-001	2.462871136936040E-001
-3.4322128E-001	2.465202796652359E-001
-3.4182760E-001	2.469204172354056E-001
-3.4105486E-001	2.471452417684037E-001
-3.4052065E-001	2.475192024613984E-001
-3.3965755E-001	2.477702261121184E-001
-3.3834499E-001	2.481068849257821E-001
-3.3713728E-001	2.484273721153532E-001
-3.3635280E-001	2.486273260168286E-001
-3.3471793E-001	2.491572298178513E-001
-3.3408180E-001	2.493871829162031E-001
-3.3294988E-001	2.496583149339300E-001
-3.3205003E-001	2.498999636068406E-001
-3.3134300E-001	2.501896241748769E-001
-3.3020455E-001	2.504816885779899E-001
-3.2935789E-001	2.507921124084116E-001
-3.2810169E-001	2.510953509352274E-001
-3.2706735E-001	2.514222920674913E-001
-3.2639891E-001	2.517436668276791E-001
-3.2517073E-001	2.519831410781652E-001
-3.2417309E-001	2.521910913792498E-001
-3.2346857E-001	2.525984000897523E-001
-3.2210588E-001	2.528299402002097E-001
-3.2134160E-001	2.529719992092359E-001
-3.2056862E-001	2.531746011227374E-001
-3.1939572E-001	2.536217916684964E-001
-3.1815842E-001	2.539229358511961E-001
-3.1727856E-001	2.542242011814206E-001
-3.1655112E-001	2.543672240548718E-001
-3.1549302E-001	2.547018226856991E-001
-3.1410322E-001	2.549589533634760E-001
-3.1336623E-001	2.551234377538661E-001
-3.1177339E-001	2.554829790153441E-001
-3.1122747E-001	2.557708225352622E-001
-3.1040093E-001	2.559933008074196E-001
-3.0947053E-001	2.563193681891316E-001
-3.0813748E-001	2.566249751523486E-001
-3.0707392E-001	2.568132851479792E-001
-3.0577722E-001	2.570453534523640E-001
-3.0534986E-001	2.573219548823319E-001
-3.0418602E-001	2.575914464477043E-001
-3.0353290E-001	2.578869226423128E-001
-3.0223766E-001	2.582411764969446E-001
-3.0145767E-001	2.584434832204821E-001
-3.0027080E-001	2.587471609521240E-001
-2.9949155E-001	2.590362498027647E-001
-2.9818964E-001	2.592624935700947E-001
-2.9707170E-001	2.595914656096219E-001
-2.9671937E-001	2.597895356378066E-001
-2.9543027E-001	2.600624874510155E-001
-2.9440290E-001	2.603387288873193E-001
-2.9342419E-001	2.604827608706235E-001
-2.9244563E-001	2.607889440669489E-001
-2.9136911E-001	2.609441191237467E-001
-2.9050869E-001	2.612257985467163E-001
-2.8950807E-001	2.615235143996498E-001
-2.8825128E-001	2.617429120471577E-001
-2.8725386E-001	2.618895381758053E-001
-2.8628841E-001	2.621878338287815E-001
-2.8530967E-001	2.624602586348890E-001
-2.8429782E-001	2.626819019033397E-001
-2.8329960E-001	2.630229064567242E-001
-2.8200451E-001	2.632460216474204E-001
-2.8158876E-001	2.634762524868603E-001
-2.8059852E-001	2.637427499163856E-001
-2.7907145E-001	2.638934473679564E-001
-2.7812406E-001	2.642517041208015E-001
-2.7739960E-001	2.643227970557014E-001
-2.7617353E-001	2.645967505458326E-001
-2.7578470E-001	2.649217448024821E-001
-2.7449673E-001	2.652213570608438E-001
-2.7330497E-001	2.654825645257466E-001
-2.7209195E-001	2.656767055405369E-001
-2.7086124E-001	2.658941183515171E-001
-2.6992494E-001	2.661092285825694E-001
-2.6930615E-001	2.663994237129081E-001
-2.6832908E-001	2.665420257382936E-001
-2.6752028E-001	2.667850544676187E-001
-2.6630682E-001	2.669671113994498E-001
-2.6570168E-001	2.673158051997973E-001
-2.6423821E-001	2.674913106624170E-001
-2.6319003E-001	2.677855111528942E-001
-2.6217631E-001	2.680193424155868E-001
-2.6107115E-001	2.682508208133563E-001
-2.6064795E-001	2.684436513278965E-001
-2.5928608E-001	2.686197449694628E-001
-2.5859854E-001	2.688626032106811E-001
-2.5758186E-001	2.691418749659702E-001
-2.5607806E-001	2.692891569739135E-001
-2.5553957E-001	2.695979238217077E-001
-2.5410298E-001	2.697447908490349E-001
-2.5310129E-001	2.699582973426145E-001
-2.5235143E-001	2.701651163391161E-001
-2.5128376E-001	2.703508984090561E-001
-2.5021890E-001	2.706116718688506E-001
-2.4948737E-001	2.707347478844424E-001
-2.4825035E-001	2.710747104483069E-001
-2.4747443E-001	2.713173011455825E-001
-2.4617302E-001	2.714707244010635E-001
-2.4511068E-001	2.718204278498895E-001
-2.4476323E-001	2.720010901689867E-001
-2.4331160E-001	2.722380200262982E-001
-2.4213220E-001	2.723720157863925E-001
-2.4152178E-001	2.725340359567436E-001
-2.4019524E-001	2.728039042127360E-001
-2.3929711E-001	2.729550677662109E-001
-2.3837496E-001	2.731639137401711E-001
-2.3713976E-001	2.733847578918498E-001
-2.3620470E-001	2.736291965400728E-001
-2.3559283E-001	2.736950846127584E-001
-2.3402001E-001	2.740853517488757E-001
-2.3346995E-001	2.742028296260020E-001
-2.3200075E-001	2.745770289804104E-001
-2.3169999E-001	2.747200029660704E-001
-2.3030859E-001	2.749484761083499E-001
-2.2900255E-001	2.752441225780387E-001
-2.2830914E-001	2.753973093435720E-001
-2.2756368E-001	2.755778346138333E-001
-2.2625977E-001	2.757829415646412E-001
-2.2498126E-001	2.759964836554394E-001
-2.2437221E-001	2.761709191132837E-001
-2.2336081E-001	2.763814828875990E-001
-2.2187339E-001	2.765928817292057E-001
-2.2139402E-001	2.767916522513820E-001
-2.2038510E-001	2.770437269161148E-001
-2.1916175E-001	2.772700763388221E-001
-2.1853194E-001	2.774919242494636E-001
-2.1733321E-001	2.776293704217232E-001
-2.1608619E-001	2.777852806823633E-001
-2.1502803E-001	2.780469936077234E-001
-2.1460798E-001	2.782654260043751E-001
-2.1393391E-001	2.784663404423342E-001
-2.1245407E-001	2.786425416254334E-001
-2.1137688E-001	2.788249532588651E-001
-2.1063137E-001	2.790353090565532E-001
-2.0975983E-001	2.792317304691236E-001
-2.0784986E-001	2.794591095643462E-001
-2.0746017E-001	2.796361083689707E-001
-2.0593518E-001	2.797886519175439E-001
-2.0556022E-001	2.799507082235508E-001
-2.0449631E-001	2.801052940733455E-001
-2.0362192E-001	2.799288124811881E-001
-2.0234355E-001	2.800779928181848E-001
-2.0149153E-001	2.804477614937007E-001
-1.9998606E-001	2.807101851191227E-001
-1.9951293E-001	2.809371870336470E-001
-1.9865137E-001	2.811864370618151E-001
-1.9736396E-001	2.813850647459428E-001
-1.9656536E-001	2.816142751148839E-001
-1.9529191E-001	2.818495028962694E-001
-1.9452839E-001	2.820927494072874E-001
-1.9394745E-001	2.823311722733923E-001
-1.9201559E-001	2.823415786303860E-001
-1.9156224E-001	2.826372769448025E-001
-1.9034846E-001	2.828118125735610E-001
-1.8977256E-001	2.830323209917101E-001
-1.8851103E-001	2.832564358523100E-001
-1.8736789E-001	2.834285114443418E-001
-1.8584672E-001	2.835993690899130E-001
-1.8494187E-001	2.838017644458611E-001
-1.8413144E-001	2.838801514978204E-001
-1.8345094E-001	2.841292004687370E-001
-1.8207681E-001	2.843183956333641E-001
-1.8136658E-001	2.844304685929298E-001
-1.8032964E-001	2.846961026889662E-001
-1.7944026E-001	2.849114590358952E-001
-1.7835903E-001	2.849863095691916E-001
-1.7744419E-001	2.852285471084546E-001
-1.7629315E-001	2.853878153212093E-001
-1.7538480E-001	2.856132302571224E-001
-1.7465915E-001	2.857509251006493E-001
-1.7360313E-001	2.859908355468962E-001
-1.7227672E-001	2.861320580942195E-001
-1.7145413E-001	2.862312424178102E-001
-1.7052601E-001	2.865110999318192E-001
-1.6920827E-001	2.867029205792475E-001
-1.6840114E-001	2.867931368912240E-001
-1.6759251E-001	2.870420602460717E-001
-1.6661267E-001	2.871649200107851E-001
-1.6531003E-001	2.873708336717562E-001
-1.6451433E-001	2.874602753738014E-001
-1.6309378E-001	2.877475540798349E-001
-1.6255830E-001	2.880305022139242E-001
-1.6135851E-001	2.881200398766897E-001
-1.6029680E-001	2.882944716432263E-001
-1.5966871E-001	2.883985991831191E-001
-1.5851176E-001	2.885674011238213E-001
-1.5736151E-001	2.886743001893075E-001
-1.5639918E-001	2.889359810355066E-001
-1.5554784E-001	2.890823984915523E-001
-1.5418477E-001	2.892492370059103E-001
-1.5328367E-001	2.894335633695673E-001
-1.5244311E-001	2.895400496478990E-001
-1.5151708E-001	2.897943507673006E-001
-1.5081896E-001	2.899013064387779E-001
-1.4951324E-001	2.900700662269458E-001
-1.4836466E-001	2.902286907451015E-001
-1.4696886E-001	2.904241604523525E-001
-1.4588989E-001	2.906121294494564E-001
-1.4528330E-001	2.906585246048579E-001
-1.4410831E-001	2.908104868191810E-001
-1.4343655E-001	2.910388492845959E-001
-1.4277042E-001	2.911737036925781E-001
-1.4118570E-001	2.914098489664391E-001
-1.4010166E-001	2.916279676611775E-001
-1.3943388E-001	2.916476371594601E-001
-1.3832663E-001	2.919349591832869E-001
-1.3729966E-001	2.921220569491929E-001
-1.3611238E-001	2.921467791828860E-001
-1.3589171E-001	2.923374463308385E-001
-1.3427283E-001	2.925104249475727E-001
-1.3372914E-001	2.926180729711505E-001
-1.3286038E-001	2.928950697947048E-001
-1.3119420E-001	2.930076654862468E-001
-1.2993903E-001	2.931182462101178E-001
-1.2967516E-001	2.933490318643610E-001
-1.2823418E-001	2.935541029674589E-001
-1.2735705E-001	2.937029674402143E-001
-1.2584859E-001	2.938181751373191E-001
-1.2522241E-001	2.939626664544148E-001
-1.2418428E-001	2.940726217845264E-001
-1.2362422E-001	2.942744825656218E-001
-1.2221570E-001	2.943434393447311E-001
-1.2133714E-001	2.946189276689855E-001
-1.2062643E-001	2.946540413907288E-001
-1.1960419E-001	2.947979506312137E-001
-1.1802144E-001	2.950751834200998E-001
-1.1752599E-001	2.952196546657762E-001
-1.1663526E-001	2.953723310132959E-001
-1.1543440E-001	2.955730322886403E-001
-1.1421871E-001	2.957416262684598E-001
-1.1346395E-001	2.958747391115795E-001
-1.1218314E-001	2.959298765010847E-001
-1.1122686E-001	2.960713481944464E-001
-1.1014980E-001	2.962236167334353E-001
-1.0898955E-001	2.962855166169236E-001
-1.0801229E-001	2.964391757009759E-001
-1.0689127E-001	2.966515748529792E-001
-1.0640139E-001	2.968057765521941E-001
-1.0508852E-001	2.970235574369631E-001
-1.0502978E-001	2.972019257026925E-001
-1.0346808E-001	2.973253445492856E-001
-1.0256623E-001	2.973665339417542E-001
-1.0127383E-001	2.976433566805938E-001
-1.0054051E-001	2.978033978767964E-001
-9.9512748E-002	2.979689739053049E-001
-9.8270334E-002	2.979835065219678E-001
-9.7247876E-002	2.980895425986363E-001
-9.6329354E-002	2.982022473584098E-001
-9.5188119E-002	2.984660264380568E-001
-9.4350629E-002	2.986307375615938E-001
-9.3479648E-002	2.985963606281352E-001
-9.2644706E-002	2.988628749218254E-001
-9.1080487E-002	2.989732561357048E-001
-9.0442836E-002	2.992068548010434E-001
-8.9365862E-002	2.993759805750514E-001
-8.8560253E-002	2.995969982959836E-001
-8.7131105E-002	2.997316770186593E-001
-8.6378254E-002	2.997816517535188E-001
-8.5631825E-002	3.000174956050827E-001
-8.4575169E-002	3.002121653062870E-001
-8.2916543E-002	3.003206796668203E-001
-8.2457788E-002	3.004452484448494E-001
-8.1579939E-002	3.006468051699573E-001
-8.0211930E-002	3.007891475464458E-001
-7.8954779E-002	3.008974808478709E-001
-7.8495175E-002	3.010294538129248E-001
-7.7407993E-002	3.011258573614235E-001
-7.6425023E-002	3.012556366070562E-001
-7.5120866E-002	3.014084173504408E-001
-7.4018270E-002	3.015770587498630E-001
-7.3645316E-002	3.017244019925043E-001
-7.2149388E-002	3.017090575217642E-001
-7.1730010E-002	3.019795108131795E-001
-7.0818499E-002	3.020600730001384E-001
-6.9927357E-002	3.021833529971816E-001
-6.8500958E-002	3.024918721038703E-001
-6.7259640E-002	3.025568821295002E-001
-6.6512309E-002	3.026535765578342E-001
-6.5599322E-002	3.027542812071877E-001
-6.4670622E-002	3.028896243345951E-001
-6.3103117E-002	3.030364499937063E-001
-6.2768057E-002	3.031392998096560E-001
-6.1681110E-002	3.033521855594943E-001
-6.0714763E-002	3.034799720916184E-001
-5.9466500E-002	3.035647205801477E-001
-5.8278378E-002	3.036938822586777E-001
-5.7283122E-002	3.038003464050212E-001
-5.6420136E-002	3.040383223237266E-001
-5.5258311E-002	3.041356192487803E-001
-5.4331806E-002	3.041926831412098E-001
-5.3215105E-002	3.043082966296766E-001
-5.2336682E-002	3.044784421929063E-001
-5.1212624E-002	3.046310843731883E-001
-5.0620150E-002	3.047460638745514E-001
-4.9311973E-002	3.048358838357716E-001
-4.8433751E-002	3.049229656656582E-001
-4.7445234E-002	3.051656495986702E-001
-4.6294309E-002	3.051921530408732E-001
-4.5276865E-002	3.053684845497774E-001
-4.4446390E-002	3.055267570609281E-001
-4.3389536E-002	3.055910438458251E-001
-4.2336147E-002	3.056897221271079E-001
-4.1538756E-002	3.059018207024096E-001
-4.0672939E-002	3.060195174206852E-001
-3.9336246E-002	3.060011510495766E-001
-3.8340565E-002	3.061057359926744E-001
-3.7433881E-002	3.063938862954574E-001
-3.6199301E-002	3.064023351503753E-001
-3.5522223E-002	3.065835537159194E-001
-3.4262367E-002	3.067709833245595E-001
-3.3559594E-002	3.067818225740835E-001
-3.2112509E-002	3.070060061040452E-001
-3.0774143E-002	3.070722607274847E-001
-3.0134154E-002	3.071275605233734E-001
-2.9103642E-002	3.073119218329095E-001
-2.8257040E-002	3.073683084092198E-001
-2.7624900E-002	3.076713632585268E-001
-2.6690267E-002	3.076380770848458E-001
-2.5042461E-002	3.078230623914696E-001
-2.4472224E-002	3.078726130270404E-001
-2.3639238E-002	3.078772962024368E-001
-2.2580933E-002	3.081611763272027E-001
-2.1539664E-002	3.082325151737577E-001
-2.0377567E-002	3.082805304891536E-001
-1.9346202E-002	3.085021117564173E-001
-1.8539816E-002	3.085011302579992E-001
-1.7048862E-002	3.088108060398582E-001
-1.6395723E-002	3.088033471118525E-001
-1.5701402E-002	3.088654485700069E-001
-1.4560607E-002	3.090319947029163E-001
-1.2999562E-002	3.092443332489994E-001
-1.2551548E-002	3.093648902463002E-001
-1.1248449E-002	3.095156532815767E-001
-1.0432350E-002	3.096823117927150E-001
-9.2531806E-003	3.096560497457768E-001
-8.1785424E-003	3.098309591619506E-001
-7.7032475E-003	3.099801921446543E-001
-6.5184333E-003	3.100092049895067E-001
-5.2940333E-003	3.101396539283026E-001
-4.6120244E-003	3.102545508625640E-001
-3.6260753E-003	3.103552112976709E-001
-2.5189822E-003	3.105835229917258E-001
-1.0397342E-003	3.107389726802516E-001
-4.2570892E-004	3.106523508688928E-001
1.0003013E-003	3.108104397766889E-001
1.5057107E-003	3.109453646121212E-001
2.6688047E-003	3.110623348642272E-001
3.8299065E-003	3.111822262825652E-001
4.3267920E-003	3.112073164709184E-001
5.5980706E-003	3.114679812074272E-001
6.3699721E-003	3.115677326953037E-001
7.1968772E-003	3.118768686597999E-001