EC-Lab ASCII FILE
Nb header lines : 63                          

Linear Sweep Voltammetry

Run on channel : 6 (SN 13765)
User : 
Electrode connection : standard
Potential control : Ewe
Ewe ctrl range : min = -2.50 V, max = 2.50 V
Ewe,I filtering : <None>
Safety Limits :
	Do not start on E overload
Channel : Floating
Acquisition started on : 07/17/2026 14:41:45.252
Technique started on : 07/17/2026 14:41:46.249
Loaded Setting File :  C:\Users\EEM-620\Desktop\Wade\abao\20260629\N719_0629-0-1_C06.mpr
Saved on :
	File : N719_0717-f-1_C06.mpr
	Directory : C:\Users\EEM-620\Desktop\Wade\abao\20260717\
	Host : 192.109.209.200
Device : VSP-300 (SN 0025)
Address : 192.109.209.129
EC-LAB for windows v11.62 (software)
Internet server v27.00 (firmware)
Command interpretor v12.02 (firmware)
Electrode material : Au/Pd
Initial state : 
Electrolyte : NaCl (0.2M)
Comments : Fe(CN)63-/Fe(CN)64- 5.10-3 M
Cable : ULC
Reference electrode : SCE Saturated Calomel Electrode (0.241 V)
Electrode surface area : 0.001 cm2
Characteristic mass : 0.001 g
Equivalent Weight : 0.000 g/eq.
Density : 0.000 g/cm3
Volume (V) : 0.001 cm3
Cycle Definition : Charge/Discharge alternance
tR (h:m:s)          0:00:5.0000         
dER/dt (mV/h)       0.0                 
dER (mV)            0                   
dtR (s)             0.0500              
dE/dt               10.000              
dE/dt unit          mV/s                
Ei (V)              -0.800              
vs.                 Ref                 
EL (V)              0.010               
vs.                 Ref                 
record              <I>                 
dI                  0.000               
unit dI             uA                  
tI (s)              0.0000              
step percent        50                  
N                   10                  
E range min (V)     -2.500              
E range max (V)     2.500               
I Range             Auto                
I Range min         Unset               
I Range max         Unset               
I Range init        Unset               
Bandwidth           8                   

Ewe/V	<I>/mA	
-8.1055164E-001	0.000000000000000E+000
-8.1049818E-001	0.000000000000000E+000
-8.1028819E-001	0.000000000000000E+000
-8.1024998E-001	0.000000000000000E+000
-8.1071961E-001	0.000000000000000E+000
-8.0891740E-001	0.000000000000000E+000
-8.1099075E-001	0.000000000000000E+000
-8.1158638E-001	0.000000000000000E+000
-8.1000561E-001	0.000000000000000E+000
-8.0990630E-001	0.000000000000000E+000
-8.1107479E-001	0.000000000000000E+000
-8.1044471E-001	0.000000000000000E+000
-8.1036836E-001	0.000000000000000E+000
-8.1046385E-001	0.000000000000000E+000
-8.0955887E-001	0.000000000000000E+000
-8.1095636E-001	0.000000000000000E+000
-8.1135345E-001	0.000000000000000E+000
-8.1024998E-001	0.000000000000000E+000
-8.1108999E-001	0.000000000000000E+000
-8.1012017E-001	0.000000000000000E+000
-8.1117016E-001	0.000000000000000E+000
-8.1032252E-001	0.000000000000000E+000
-8.1054014E-001	0.000000000000000E+000
-8.1015068E-001	0.000000000000000E+000
-8.1054783E-001	0.000000000000000E+000
-8.0994833E-001	0.000000000000000E+000
-8.1059361E-001	0.000000000000000E+000
-8.1072724E-001	0.000000000000000E+000
-8.1121218E-001	0.000000000000000E+000
-8.1187654E-001	0.000000000000000E+000
-8.1031108E-001	0.000000000000000E+000
-8.1099457E-001	0.000000000000000E+000
-8.1065857E-001	0.000000000000000E+000
-8.1144512E-001	0.000000000000000E+000
-8.1081891E-001	0.000000000000000E+000
-8.1106329E-001	0.000000000000000E+000
-8.1012398E-001	0.000000000000000E+000
-8.1044471E-001	0.000000000000000E+000
-8.0950922E-001	0.000000000000000E+000
-8.1006670E-001	0.000000000000000E+000
-8.0964667E-001	0.000000000000000E+000
-8.1024230E-001	0.000000000000000E+000
-8.1044471E-001	0.000000000000000E+000
-8.1081885E-001	0.000000000000000E+000
-8.1063563E-001	0.000000000000000E+000
-8.1108999E-001	0.000000000000000E+000
-8.1023473E-001	0.000000000000000E+000
-8.1111288E-001	0.000000000000000E+000
-8.1036073E-001	0.000000000000000E+000
-8.1116635E-001	0.000000000000000E+000
-8.1026906E-001	0.000000000000000E+000
-8.1018126E-001	0.000000000000000E+000
-8.1085706E-001	0.000000000000000E+000
-8.0900902E-001	0.000000000000000E+000
-8.1005144E-001	0.000000000000000E+000
-8.0945575E-001	0.000000000000000E+000
-8.0973834E-001	0.000000000000000E+000
-8.0993307E-001	0.000000000000000E+000
-8.1008959E-001	0.000000000000000E+000
-8.1091440E-001	0.000000000000000E+000
-8.0895942E-001	0.000000000000000E+000
-8.1548107E-001	0.000000000000000E+000
-8.1482810E-001	0.000000000000000E+000
-7.8847426E-001	1.503801150454414E-001
-7.8883797E-001	1.537102949978029E-001
-7.8793603E-001	1.602746089920402E-001
-7.8728914E-001	1.671338502858102E-001
-7.8586936E-001	1.737672649151469E-001
-7.8502518E-001	1.809296236994369E-001
-7.8455508E-001	1.876924110615636E-001
-7.8368014E-001	1.946443473678776E-001
-7.8230596E-001	2.016632011229245E-001
-7.8122252E-001	2.086001899712235E-001
-7.8030205E-001	2.155234298013422E-001
-7.7886802E-001	2.226181594240999E-001
-7.7799386E-001	2.295598787137108E-001
-7.7693033E-001	2.365691731856381E-001
-7.7611583E-001	2.433394571673193E-001
-7.7494067E-001	2.502921789677615E-001
-7.7398461E-001	2.573968481134481E-001
-7.7286434E-001	2.641873396284364E-001
-7.7194291E-001	2.711147363125178E-001
-7.7112001E-001	2.779023647308350E-001
-7.7027202E-001	2.848948188309941E-001
-7.6910478E-001	2.917814946353978E-001
-7.6830554E-001	2.985785054387868E-001
-7.6739085E-001	3.055309157514712E-001
-7.6592249E-001	3.123151142219136E-001
-7.6493376E-001	3.192206398342510E-001
-7.6402807E-001	3.260304569319228E-001
-7.6309144E-001	3.328708503740279E-001
-7.6219475E-001	3.397056784816650E-001
-7.6063704E-001	3.464610080959067E-001
-7.6010829E-001	3.532900103471359E-001
-7.5920427E-001	3.601812572810665E-001
-7.5779140E-001	3.669440285820080E-001
-7.5700676E-001	3.736877027140171E-001
-7.5605875E-001	3.805422943114518E-001
-7.5489485E-001	3.871901434052871E-001
-7.5422150E-001	3.939056655874968E-001
-7.5299215E-001	4.007437727979362E-001
-7.5196749E-001	4.074498910318898E-001
-7.5123048E-001	4.142505863606227E-001
-7.5006872E-001	4.207947397673557E-001
-7.4952358E-001	4.274115925999693E-001
-7.4788600E-001	4.341321013247874E-001
-7.4691761E-001	4.408993345029923E-001
-7.4580598E-001	4.477380388588816E-001
-7.4511683E-001	4.543092134554909E-001
-7.4439222E-001	4.610015582983156E-001
-7.4285531E-001	4.676993693466542E-001
-7.4245423E-001	4.740659113045576E-001
-7.4136710E-001	4.807596882046363E-001
-7.3996300E-001	4.873103081352177E-001
-7.3891741E-001	4.939915918821596E-001
-7.3814487E-001	5.007661380287658E-001
-7.3732775E-001	5.072298711485930E-001
-7.3616403E-001	5.138381912062560E-001
-7.3515409E-001	5.204099229088524E-001
-7.3389775E-001	5.270111756346072E-001
-7.3249316E-001	5.335203298815996E-001
-7.3209733E-001	5.400727517488937E-001
-7.3118716E-001	5.466269076246633E-001
-7.3042536E-001	5.532120581440365E-001
-7.2914898E-001	5.596149645883726E-001
-7.2787523E-001	5.662686251722453E-001
-7.2700518E-001	5.726561673261514E-001
-7.2609425E-001	5.791194543794349E-001
-7.2534341E-001	5.857634033449886E-001
-7.2399235E-001	5.921312426389367E-001
-7.2272480E-001	5.984801623486538E-001
-7.2184759E-001	6.050142159478549E-001
-7.2050762E-001	6.114483485343288E-001
-7.1980131E-001	6.175321834331120E-001
-7.1876454E-001	6.238991493980102E-001
-7.1815091E-001	6.305710689199177E-001
-7.1698910E-001	6.369111578593967E-001
-7.1588951E-001	6.431177943531026E-001
-7.1476263E-001	6.495643392619179E-001
-7.1421009E-001	6.558272810359160E-001
-7.1317774E-001	6.621633642525584E-001
-7.1216506E-001	6.686869864283960E-001
-7.1098828E-001	6.749081139763193E-001
-7.1011758E-001	6.812143345811865E-001
-7.0867580E-001	6.874229302857393E-001
-7.0843536E-001	6.938074776833809E-001
-7.0725298E-001	6.999663142142483E-001
-7.0613426E-001	7.062562441138347E-001
-7.0511067E-001	7.125535728064989E-001
-7.0391917E-001	7.186636519790746E-001
-7.0314151E-001	7.248468183286221E-001
-7.0234585E-001	7.309581078588980E-001
-7.0108515E-001	7.372704235215988E-001
-7.0015007E-001	7.434987704301044E-001
-6.9922590E-001	7.496033570280751E-001
-6.9814634E-001	7.556355786064159E-001
-6.9653904E-001	7.619948913515717E-001
-6.9605500E-001	7.682103865814440E-001
-6.9541848E-001	7.742715477950616E-001
-6.9373465E-001	7.805153221857752E-001
-6.9296491E-001	7.865178936885453E-001
-6.9230872E-001	7.927769156640796E-001
-6.9108033E-001	7.985202507288349E-001
-6.8968832E-001	8.046392351388931E-001
-6.8950963E-001	8.106258262785353E-001
-6.8817317E-001	8.163655615515175E-001
-6.8748873E-001	8.224758201563311E-001
-6.8606371E-001	8.286754893208048E-001
-6.8476212E-001	8.343970585200537E-001
-6.8412095E-001	8.404316929898625E-001
-6.8341047E-001	8.465147740035155E-001
-6.8186849E-001	8.523495262143803E-001
-6.8096936E-001	8.582714230964743E-001
-6.7974681E-001	8.640980400421014E-001
-6.7896533E-001	8.700915177663155E-001
-6.7863214E-001	8.762183378239445E-001
-6.7709631E-001	8.819032075504474E-001
-6.7631602E-001	8.878276876553337E-001
-6.7513555E-001	8.936363725402572E-001
-6.7434204E-001	8.995754859513747E-001
-6.7294961E-001	9.052030100564998E-001
-6.7207867E-001	9.110530846648750E-001
-6.7117053E-001	9.169889437379677E-001
-6.6998088E-001	9.226976509573728E-001
-6.6907173E-001	9.283556655325231E-001
-6.6823417E-001	9.341949820518445E-001
-6.6683942E-001	9.399203624160208E-001
-6.6590595E-001	9.456942354639413E-001
-6.6493481E-001	9.512679492709815E-001
-6.6434854E-001	9.569765592378658E-001
-6.6293186E-001	9.628347235697294E-001
-6.6162354E-001	9.681881740689304E-001
-6.6131085E-001	9.737737370345982E-001
-6.5979391E-001	9.794866729665657E-001
-6.5902501E-001	9.850995933466820E-001
-6.5892845E-001	9.908375349585583E-001
-6.5678746E-001	9.963114425815949E-001
-6.5614402E-001	1.001976030583913E+000
-6.5485859E-001	1.007550209898636E+000
-6.5394831E-001	1.013041697304555E+000
-6.5308166E-001	1.018647201506933E+000
-6.5165395E-001	1.023975634878433E+000
-6.5089637E-001	1.029517524910192E+000
-6.5013498E-001	1.034864466412156E+000
-6.4907229E-001	1.040280446134227E+000
-6.4809334E-001	1.045879025150226E+000
-6.4671350E-001	1.051166742854122E+000
-6.4582610E-001	1.056686129558969E+000
-6.4516962E-001	1.061793310818146E+000
-6.4427191E-001	1.067197944555017E+000
-6.4337885E-001	1.072499508383100E+000
-6.4177835E-001	1.077968330930664E+000
-6.4084285E-001	1.082947958950645E+000
-6.4008152E-001	1.088089930790443E+000
-6.3890141E-001	1.093573728325897E+000
-6.3815528E-001	1.099777038623063E+000
-6.3694781E-001	1.105875508124525E+000
-6.3586634E-001	1.111239286208594E+000
-6.3478786E-001	1.116759534373330E+000
-6.3376033E-001	1.121362057286234E+000
-6.3281941E-001	1.127119451623274E+000
-6.3193452E-001	1.131671764094518E+000
-6.3090771E-001	1.137119556423452E+000
-6.2981606E-001	1.142252956689511E+000
-6.2874252E-001	1.147019646647907E+000
-6.2788600E-001	1.151912476452715E+000
-6.2675595E-001	1.157050001124542E+000
-6.2606347E-001	1.161995147074947E+000
-6.2464267E-001	1.167280466468252E+000
-6.2390929E-001	1.172152481559245E+000
-6.2296540E-001	1.177359377549585E+000
-6.2173611E-001	1.181940917753514E+000
-6.2063837E-001	1.187218208969750E+000
-6.1961466E-001	1.191733004163789E+000
-6.1879879E-001	1.196913454405689E+000
-6.1777186E-001	1.201686365736855E+000
-6.1676061E-001	1.206327541098961E+000
-6.1593574E-001	1.211146813851814E+000
-6.1493659E-001	1.216015062398373E+000
-6.1357284E-001	1.220766794800326E+000
-6.1303508E-001	1.225411992244142E+000
-6.1184800E-001	1.230076193561320E+000
-6.1063641E-001	1.234773991422522E+000
-6.0990113E-001	1.239261138494370E+000
-6.0891289E-001	1.244074320041433E+000
-6.0793447E-001	1.248763796907884E+000
-6.0664278E-001	1.253044580971755E+000
-6.0568023E-001	1.257887471222076E+000
-6.0481685E-001	1.262356987981888E+000
-6.0384399E-001	1.266933677511086E+000
-6.0300863E-001	1.271622990637015E+000
-6.0194337E-001	1.275747326513136E+000
-6.0083562E-001	1.280442144445797E+000
-5.9994984E-001	1.284915603061421E+000
-5.9859157E-001	1.289700303916579E+000
-5.9796387E-001	1.293685192910287E+000
-5.9668636E-001	1.297807375590008E+000
-5.9592921E-001	1.302426713484309E+000
-5.9493041E-001	1.306525602495450E+000
-5.9386450E-001	1.310799693757735E+000
-5.9300244E-001	1.314805302630976E+000
-5.9178704E-001	1.319599355112146E+000
-5.9097338E-001	1.323650510498773E+000
-5.8993167E-001	1.327439578457014E+000
-5.8870029E-001	1.331610069924595E+000
-5.8792919E-001	1.336425569460348E+000
-5.8682621E-001	1.340200931409790E+000
-5.8575946E-001	1.344308713106097E+000
-5.8502537E-001	1.348415513005524E+000
-5.8384758E-001	1.352211607375847E+000
-5.8298743E-001	1.355852736229148E+000
-5.8190703E-001	1.359900918823701E+000
-5.8079892E-001	1.363948341777806E+000
-5.7980025E-001	1.367952827778129E+000
-5.7882613E-001	1.371660436607069E+000
-5.7780719E-001	1.375206443055514E+000
-5.7683432E-001	1.379093923916422E+000
-5.7584810E-001	1.383412240280047E+000
-5.7503355E-001	1.387208791942607E+000
-5.7409334E-001	1.390752614786230E+000
-5.7296574E-001	1.394541328061834E+000
-5.7180047E-001	1.398152614771217E+000
-5.7098740E-001	1.401647467166185E+000
-5.7008123E-001	1.405553037635887E+000
-5.6857955E-001	1.408947186337574E+000
-5.6760371E-001	1.412555912440576E+000
-5.6693137E-001	1.415847490499822E+000
-5.6604469E-001	1.419340119455700E+000
-5.6476897E-001	1.423133455492838E+000
-5.6384575E-001	1.426217721440594E+000
-5.6275439E-001	1.430051246726961E+000
-5.6197089E-001	1.433661038262969E+000
-5.6119305E-001	1.436241843592187E+000
-5.5985659E-001	1.439733128442807E+000
-5.5886990E-001	1.442982372955978E+000
-5.5798465E-001	1.446431209229750E+000
-5.5692822E-001	1.449876254355473E+000
-5.5606121E-001	1.452449398863614E+000
-5.5499619E-001	1.456148579854652E+000
-5.5388737E-001	1.458991923541934E+000
-5.5284935E-001	1.462274653322021E+000
-5.5174011E-001	1.465041253853725E+000
-5.5093670E-001	1.468526155998308E+000
-5.4997993E-001	1.471900778969570E+000
-5.4908907E-001	1.474623483640173E+000
-5.4777616E-001	1.477973385897396E+000
-5.4676926E-001	1.480589097986616E+000
-5.4595441E-001	1.483744697852263E+000
-5.4493701E-001	1.486810015860250E+000
-5.4385358E-001	1.489767411516771E+000
-5.4280967E-001	1.492191658941683E+000
-5.4171890E-001	1.495530249984479E+000
-5.4081929E-001	1.497971391512287E+000
-5.3995740E-001	1.500418287046529E+000
-5.3884268E-001	1.503304553648874E+000
-5.3791952E-001	1.506278679464710E+000
-5.3669363E-001	1.508836205496827E+000
-5.3578573E-001	1.511478346033130E+000
-5.3500819E-001	1.513871552491631E+000
-5.3393459E-001	1.516616068404531E+000
-5.3287911E-001	1.519541320425493E+000
-5.3193069E-001	1.521816758783880E+000
-5.3075242E-001	1.524399845407249E+000
-5.2974474E-001	1.526867086688675E+000
-5.2898592E-001	1.529499132048208E+000
-5.2772915E-001	1.531945301576041E+000
-5.2708912E-001	1.534311665153063E+000
-5.2584070E-001	1.536521338892204E+000
-5.2491885E-001	1.539062691395586E+000
-5.2400011E-001	1.541153051924924E+000
-5.2291286E-001	1.543702067228161E+000
-5.2199572E-001	1.545880974580847E+000
-5.2083176E-001	1.548209231622792E+000
-5.1987022E-001	1.550597131531010E+000
-5.1897693E-001	1.552243875960514E+000
-5.1785898E-001	1.554690064241491E+000
-5.1682806E-001	1.556655477866016E+000
-5.1595896E-001	1.558944873649764E+000
-5.1514363E-001	1.560938306290790E+000
-5.1384068E-001	1.562765876691412E+000
-5.1293981E-001	1.565111541361723E+000
-5.1167864E-001	1.567634318437841E+000
-5.1083302E-001	1.569378467432472E+000
-5.0992823E-001	1.571479044578695E+000
-5.0897676E-001	1.573658440971879E+000
-5.0791961E-001	1.575100253301642E+000
-5.0663263E-001	1.576889348526791E+000
-5.0600106E-001	1.578926724540917E+000
-5.0461018E-001	1.581094550865657E+000
-5.0387704E-001	1.582639415231021E+000
-5.0265735E-001	1.584238934301098E+000
-5.0197744E-001	1.586186503370600E+000
-5.0081635E-001	1.588025141093471E+000
-4.9974248E-001	1.590337435111543E+000
-4.9848986E-001	1.591364354723035E+000
-4.9803889E-001	1.593518656988945E+000
-4.9688515E-001	1.595627957016188E+000
-4.9571821E-001	1.596652673074498E+000
-4.9492136E-001	1.598721688915887E+000
-4.9382308E-001	1.599638528018090E+000
-4.9278215E-001	1.601555295564513E+000
-4.9172491E-001	1.603155365681807E+000
-4.9089190E-001	1.604378638168171E+000
-4.8983616E-001	1.605765225434748E+000
-4.8902950E-001	1.607960883163301E+000
-4.8776853E-001	1.609303934154690E+000
-4.8688477E-001	1.610600083790448E+000
-4.8589537E-001	1.611874861447980E+000
-4.8483548E-001	1.614019078512982E+000
-4.8372740E-001	1.615084195203831E+000
-4.8306018E-001	1.615966972929467E+000
-4.8192379E-001	1.617313670891299E+000
-4.8092192E-001	1.618408532565432E+000
-4.7988501E-001	1.620124288455205E+000
-4.7896773E-001	1.621766997432264E+000
-4.7792420E-001	1.622318405701895E+000
-4.7691229E-001	1.624585169608949E+000
-4.7581178E-001	1.625327255162928E+000
-4.7504440E-001	1.626765421963409E+000
-4.7377065E-001	1.627873525023461E+000
-4.7286740E-001	1.629154745903278E+000
-4.7189358E-001	1.630300571359278E+000
-4.7062314E-001	1.632116506773013E+000
-4.7001868E-001	1.632973777025572E+000
-4.6883336E-001	1.634428899321289E+000
-4.6787986E-001	1.635350153953944E+000
-4.6704435E-001	1.637028033897103E+000
-4.6615827E-001	1.638150182311179E+000
-4.6496168E-001	1.638872764452739E+000
-4.6380019E-001	1.640182022152383E+000
-4.6305209E-001	1.641114366551235E+000
-4.6189111E-001	1.642292116251255E+000
-4.6088123E-001	1.643282967965447E+000
-4.5993084E-001	1.644042012868106E+000
-4.5883220E-001	1.645660079463770E+000
-4.5798284E-001	1.646145638960292E+000
-4.5695677E-001	1.647754080041692E+000
-4.5552865E-001	1.649103891904925E+000
-4.5508689E-001	1.649868378208744E+000
-4.5389387E-001	1.650754875331010E+000
-4.5295346E-001	1.651576743969918E+000
-4.5190349E-001	1.652079064812924E+000
-4.5095512E-001	1.653111869814218E+000
-4.5003891E-001	1.654285106225849E+000
-4.4893929E-001	1.654898491446616E+000
-4.4779035E-001	1.656391708111325E+000
-4.4712281E-001	1.656721986416834E+000
-4.4574693E-001	1.658280534048874E+000
-4.4505200E-001	1.658589215415475E+000
-4.4373044E-001	1.659831390612653E+000
-4.4289213E-001	1.660940088055753E+000
-4.4191545E-001	1.661087250854127E+000
-4.4094163E-001	1.662305179293504E+000
-4.3983918E-001	1.663329652338117E+000
-4.3899786E-001	1.664325908258821E+000
-4.3795401E-001	1.664795251356232E+000
-4.3703040E-001	1.665747492677635E+000
-4.3617380E-001	1.666301774959059E+000
-4.3509814E-001	1.667178501685462E+000
-4.3391913E-001	1.667896748692900E+000
-4.3285844E-001	1.669300659718063E+000
-4.3198285E-001	1.669577139947151E+000
-4.3094492E-001	1.670662331703184E+000
-4.2971876E-001	1.670999078287021E+000
-4.2902958E-001	1.672316749062801E+000
-4.2794532E-001	1.672357523049747E+000
-4.2673820E-001	1.673175529197415E+000
-4.2593148E-001	1.674133397638798E+000
-4.2497176E-001	1.675557555370297E+000
-4.2400599E-001	1.675689672982253E+000
-4.2286858E-001	1.675904193962065E+000
-4.2200634E-001	1.676829470523371E+000
-4.2097706E-001	1.677776157304095E+000
-4.1997218E-001	1.678349251548453E+000
-4.1888207E-001	1.678738674787795E+000
-4.1771534E-001	1.679514172452467E+000
-4.1713637E-001	1.680437589273401E+000
-4.1596383E-001	1.681066810532862E+000
-4.1455510E-001	1.682026342937238E+000
-4.1375068E-001	1.682361951115706E+000
-4.1269788E-001	1.682567804223957E+000
-4.1181502E-001	1.683861326840187E+000
-4.1107592E-001	1.684436737599565E+000
-4.1004527E-001	1.685460189702336E+000
-4.0890995E-001	1.685919380022421E+000
-4.0821877E-001	1.685886317202662E+000
-4.0697300E-001	1.686749918593298E+000
-4.0620220E-001	1.687623985646316E+000
-4.0486106E-001	1.687759450740291E+000
-4.0391666E-001	1.689186601451153E+000
-4.0275651E-001	1.689483894262549E+000
-4.0172139E-001	1.690485665091764E+000
-4.0060899E-001	1.690700262784954E+000
-3.9982152E-001	1.691339076994801E+000
-3.9891770E-001	1.691747035417290E+000
-3.9792684E-001	1.692392452723444E+000
-3.9686561E-001	1.692674597452388E+000
-3.9601874E-001	1.693116463720802E+000
-3.9497468E-001	1.693909687024572E+000
-3.9394379E-001	1.694582238948248E+000
-3.9301676E-001	1.694583710145068E+000
-3.9190310E-001	1.695561277131335E+000
-3.9097506E-001	1.696557011593271E+000
-3.8997310E-001	1.697100417757490E+000
-3.8904792E-001	1.697350671585870E+000
-3.8787201E-001	1.698330071513306E+000
-3.8699040E-001	1.698541142322396E+000
-3.8605362E-001	1.699450979647468E+000
-3.8484409E-001	1.699513895092197E+000
-3.8382548E-001	1.699532227383717E+000
-3.8296390E-001	1.700709468229512E+000
-3.8194364E-001	1.701767501179823E+000
-3.8089827E-001	1.701459974878363E+000
-3.8012236E-001	1.701881834442300E+000
-3.7887162E-001	1.702691895266375E+000
-3.7773401E-001	1.703249616330830E+000
-3.7696800E-001	1.703390439075456E+000
-3.7570798E-001	1.704276773940636E+000
-3.7488493E-001	1.704141815617909E+000
-3.7408093E-001	1.705633710931849E+000
-3.7300739E-001	1.705464358407040E+000
-3.7223971E-001	1.706534341137829E+000
-3.7068033E-001	1.706544647338214E+000
-3.6978436E-001	1.706412029487119E+000
-3.6887151E-001	1.707206712863215E+000
-3.6790824E-001	1.708180166229051E+000
-3.6712548E-001	1.708183434671836E+000
-3.6601332E-001	1.709367952413029E+000
-3.6506423E-001	1.709632202706956E+000
-3.6391363E-001	1.709577815640806E+000
-3.6294633E-001	1.710712428446163E+000
-3.6202744E-001	1.710889240933787E+000
-3.6096168E-001	1.711255003267659E+000
-3.6028671E-001	1.711429283850723E+000
-3.5885486E-001	1.711907693909275E+000
-3.5763192E-001	1.712239326412025E+000
-3.5693723E-001	1.712824642658234E+000
-3.5588062E-001	1.713531318362108E+000
-3.5502213E-001	1.713898696345872E+000
-3.5399756E-001	1.714176585000978E+000
-3.5313386E-001	1.714780951530779E+000
-3.5193276E-001	1.715051978274623E+000
-3.5103416E-001	1.715296913904176E+000
-3.5003924E-001	1.715557655618802E+000
-3.4893495E-001	1.716066465333658E+000
-3.4781832E-001	1.716703967915638E+000
-3.4686959E-001	1.716824647269683E+000
-3.4600374E-001	1.717403805090328E+000
-3.4505191E-001	1.717653737851876E+000
-3.4410495E-001	1.717719246669876E+000
-3.4285200E-001	1.718823628017205E+000
-3.4180406E-001	1.719247750937939E+000
-3.4091017E-001	1.719286260469531E+000
-3.3983511E-001	1.719687471787132E+000
-3.3881453E-001	1.720268572820643E+000
-3.3805677E-001	1.720018678241310E+000
-3.3678770E-001	1.720985729937201E+000
-3.3582893E-001	1.720895702621213E+000
-3.3491436E-001	1.721532223401248E+000
-3.3402154E-001	1.721505010017648E+000
-3.3304098E-001	1.722246300460971E+000
-3.3192545E-001	1.722410211408580E+000
-3.3079317E-001	1.722771814851860E+000
-3.3007145E-001	1.723138275096247E+000
-3.2879090E-001	1.723943918943412E+000
-3.2816681E-001	1.724162762286070E+000
-3.2683614E-001	1.724370316774760E+000
-3.2596835E-001	1.725205859652277E+000
-3.2485282E-001	1.724831876318731E+000
-3.2404771E-001	1.725065035676508E+000
-3.2291770E-001	1.725836661126881E+000
-3.2169974E-001	1.726021006509541E+000
-3.2093245E-001	1.726747815255763E+000
-3.1996343E-001	1.726882467115377E+000
-3.1920731E-001	1.727761861432895E+000
-3.1796986E-001	1.727568580320590E+000
-3.1699133E-001	1.727854662471348E+000
-3.1615981E-001	1.728381447033016E+000
-3.1490549E-001	1.728704842704310E+000
-3.1389830E-001	1.729149855618225E+000
-3.1308603E-001	1.729337748829970E+000
-3.1200865E-001	1.730378075606286E+000
-3.1121802E-001	1.729844973571780E+000
-3.0977833E-001	1.730071242484790E+000
-3.0892369E-001	1.730846717401786E+000
-3.0811051E-001	1.730776507470793E+000
-3.0704889E-001	1.731341722386852E+000
-3.0597705E-001	1.732050483425457E+000
-3.0501848E-001	1.731943026146086E+000
-3.0410224E-001	1.732346750795838E+000
-3.0313408E-001	1.732419885143088E+000
-3.0180258E-001	1.732847446920700E+000
-3.0103508E-001	1.733092788744857E+000
-3.0010077E-001	1.733708341414996E+000
-2.9918429E-001	1.733483016766883E+000
-2.9809713E-001	1.733720518372676E+000
-2.9685244E-001	1.734192908880143E+000
-2.9609421E-001	1.734721540024989E+000
-2.9503825E-001	1.735269590108487E+000
-2.9381046E-001	1.735592501042650E+000
-2.9257014E-001	1.735658235296057E+000
-2.9205573E-001	1.735980704702712E+000
-2.9100055E-001	1.736262164632894E+000
-2.8989479E-001	1.736812887920266E+000
-2.8895774E-001	1.737373987426022E+000
-2.8792286E-001	1.737262954590496E+000
-2.8670228E-001	1.737513637377157E+000
-2.8615150E-001	1.737473062253439E+000
-2.8519174E-001	1.739013535832921E+000
-2.8414252E-001	1.738838631797719E+000
-2.8296688E-001	1.739569701468646E+000
-2.8182822E-001	1.739624644043268E+000
-2.8107071E-001	1.739541841877838E+000
-2.8001952E-001	1.740255506365738E+000
-2.7891511E-001	1.740834520922771E+000
-2.7804515E-001	1.741034550799263E+000
-2.7710336E-001	1.741482230866438E+000
-2.7608827E-001	1.741376728095386E+000
-2.7487275E-001	1.742132141171542E+000
-2.7412969E-001	1.742101568314766E+000
-2.7320126E-001	1.741735391318798E+000
-2.7189630E-001	1.742487685444129E+000
-2.7090007E-001	1.743080408208911E+000
-2.6990181E-001	1.743112836722986E+000
-2.6911575E-001	1.744061402618669E+000
-2.6822001E-001	1.743803934090661E+000
-2.6697636E-001	1.744520941818195E+000
-2.6587766E-001	1.744598939636795E+000
-2.6511937E-001	1.744372954799069E+000
-2.6405770E-001	1.744699411922035E+000
-2.6291710E-001	1.744635230653143E+000
-2.6185450E-001	1.745481819742261E+000
-2.6133075E-001	1.745331316253500E+000
-2.6002684E-001	1.746018702233279E+000
-2.5912932E-001	1.746207481733075E+000
-2.5819540E-001	1.745814375564688E+000
-2.5694716E-001	1.746500265543109E+000
-2.5606433E-001	1.747390924780447E+000
-2.5501108E-001	1.747905520348851E+000
-2.5384757E-001	1.747846919905264E+000
-2.5281113E-001	1.747499741889815E+000
-2.5196940E-001	1.747615258400153E+000
-2.5071844E-001	1.748686616619420E+000
-2.5006434E-001	1.748537818839463E+000
-2.4912877E-001	1.749003708086633E+000
-2.4802700E-001	1.748355037912172E+000
-2.4699344E-001	1.748533718365620E+000
-2.4599651E-001	1.749489157564117E+000
-2.4502368E-001	1.748445584266271E+000
-2.4404341E-001	1.748327623157063E+000
-2.4291939E-001	1.749379114144382E+000
-2.4183011E-001	1.749896566349044E+000
-2.4073640E-001	1.750604647843282E+000
-2.4003614E-001	1.750773601509906E+000
-2.3911361E-001	1.751054217693980E+000
-2.3806186E-001	1.751165248765554E+000
-2.3706615E-001	1.751308268143070E+000
-2.3623481E-001	1.752302604433115E+000
-2.3490967E-001	1.751797573158038E+000
-2.3407197E-001	1.751509132484596E+000
-2.3294321E-001	1.752786718151160E+000
-2.3202474E-001	1.752476426462337E+000
-2.3104703E-001	1.753076329551368E+000
-2.3006894E-001	1.753045476829968E+000
-2.2915189E-001	1.752999810432952E+000
-2.2794935E-001	1.754043621045575E+000
-2.2694948E-001	1.753800637917834E+000
-2.2595513E-001	1.753897198096471E+000
-2.2504215E-001	1.753993708226417E+000
-2.2396477E-001	1.755346832931899E+000
-2.2299509E-001	1.754682288953551E+000
-2.2220682E-001	1.754521899653497E+000
-2.2100131E-001	1.754330259782302E+000
-2.2009340E-001	1.754681070093753E+000
-2.1911873E-001	1.754994521024742E+000
-2.1794796E-001	1.755645476833539E+000
-2.1705110E-001	1.756304451988804E+000
-2.1612662E-001	1.755796439306001E+000
-2.1492174E-001	1.756062648914487E+000
-2.1389441E-001	1.756581938653095E+000
-2.1307081E-001	1.756504031378167E+000
-2.1205464E-001	1.756787556740974E+000
-2.1108811E-001	1.756823390172997E+000
-2.1018982E-001	1.757282488048075E+000
-2.0901443E-001	1.757432053210557E+000
-2.0788425E-001	1.757032376758996E+000
-2.0713605E-001	1.757591192920998E+000
-2.0610425E-001	1.757700596694598E+000
-2.0501758E-001	1.758369766339520E+000
-2.0413060E-001	1.757657483220100E+000
-2.0305152E-001	1.758330584952124E+000
-2.0172253E-001	1.758702568651415E+000
-2.0089397E-001	1.758888905798955E+000
-2.0011908E-001	1.758797533810136E+000
-1.9887263E-001	1.759392716902369E+000
-1.9795641E-001	1.759635554971520E+000
-1.9677959E-001	1.759583173442408E+000
-1.9608185E-001	1.759588570782432E+000
-1.9515254E-001	1.759969826097842E+000
-1.9415089E-001	1.760517660128130E+000
-1.9303720E-001	1.760285208346673E+000
-1.9244431E-001	1.760922465887340E+000
-1.9079393E-001	1.760998929495106E+000
-1.8989515E-001	1.761255415501420E+000
-1.8901037E-001	1.761372125811047E+000
-1.8820953E-001	1.761348671320157E+000
-1.8708405E-001	1.761651475396413E+000
-1.8598799E-001	1.761670896300561E+000
-1.8501815E-001	1.761121197335186E+000
-1.8407097E-001	1.761966784243228E+000
-1.8320170E-001	1.761555712240696E+000
-1.8208250E-001	1.762386279249636E+000
-1.8083735E-001	1.762040415847743E+000
-1.8003996E-001	1.762200802568952E+000
-1.7904782E-001	1.761707315842308E+000
-1.7811571E-001	1.762721583799078E+000
-1.7693312E-001	1.763182486932234E+000
-1.7613532E-001	1.763415763499570E+000
-1.7496946E-001	1.763260663107591E+000
-1.7405206E-001	1.764012822598466E+000
-1.7310549E-001	1.763763101564518E+000
-1.7197394E-001	1.763606611943114E+000
-1.7112167E-001	1.764432293949305E+000
-1.7009647E-001	1.764853408491163E+000
-1.6912036E-001	1.765084825802209E+000
-1.6798961E-001	1.764872044876775E+000
-1.6695847E-001	1.764952322675123E+000
-1.6604240E-001	1.765829312315957E+000
-1.6517256E-001	1.765307225011011E+000
-1.6398190E-001	1.765719135326364E+000
-1.6301697E-001	1.765825504047195E+000
-1.6206807E-001	1.765984202976581E+000
-1.6133475E-001	1.765876630942033E+000
-1.5998159E-001	1.765731750095139E+000
-1.5894726E-001	1.766259239779583E+000
-1.5800658E-001	1.766663490633618E+000
-1.5730157E-001	1.766573625030340E+000
-1.5597515E-001	1.766477812495501E+000
-1.5500833E-001	1.766900802410598E+000
-1.5411627E-001	1.767091673557402E+000
-1.5316635E-001	1.766995096372233E+000
-1.5193887E-001	1.767395590642868E+000
-1.5128289E-001	1.768120256838973E+000
-1.4991529E-001	1.768136331052688E+000
-1.4916718E-001	1.767583936241472E+000
-1.4808740E-001	1.767623131749815E+000
-1.4709125E-001	1.768003768667029E+000
-1.4593069E-001	1.768146663388292E+000
-1.4499246E-001	1.768756154786654E+000
-1.4407903E-001	1.768788192463640E+000
-1.4293228E-001	1.769263300078883E+000
-1.4192808E-001	1.769189745739663E+000
-1.4087482E-001	1.769279569344391E+000
-1.4000660E-001	1.769942921896785E+000
-1.3900857E-001	1.769537062556660E+000
-1.3800809E-001	1.770106473859659E+000
-1.3722159E-001	1.770097437280196E+000
-1.3581435E-001	1.769720241151468E+000
-1.3490632E-001	1.770314864105806E+000
-1.3389927E-001	1.770479645442080E+000
-1.3318242E-001	1.770589561478293E+000
-1.3194238E-001	1.770774047683783E+000
-1.3103534E-001	1.771023503884121E+000
-1.3016362E-001	1.771498016361107E+000
-1.2895817E-001	1.770824221825162E+000
-1.2801930E-001	1.771239613493281E+000
-1.2705755E-001	1.771126868371564E+000
-1.2609382E-001	1.771364956542300E+000
-1.2504017E-001	1.771778103654034E+000
-1.2391684E-001	1.772098244150406E+000
-1.2299697E-001	1.772329702421482E+000
-1.2208460E-001	1.772533551134444E+000
-1.2111263E-001	1.772517448966050E+000
-1.1998922E-001	1.772538211334634E+000
-1.1900676E-001	1.772593504305932E+000
-1.1789381E-001	1.772490904563007E+000
-1.1716983E-001	1.773112529681799E+000
-1.1604781E-001	1.772946718205916E+000
-1.1494735E-001	1.773751463051198E+000
-1.1428701E-001	1.773290528743359E+000
-1.1316947E-001	1.773794589984398E+000
-1.1214665E-001	1.773695886411048E+000
-1.1114795E-001	1.773941101851285E+000
-1.1005455E-001	1.773976260892095E+000
-1.0892761E-001	1.773755032431197E+000
-1.0826387E-001	1.774242967367174E+000
-1.0698282E-001	1.774144367379368E+000
-1.0596399E-001	1.774235953059470E+000
-1.0510564E-001	1.774355422756521E+000
-1.0421181E-001	1.774985124667488E+000
-1.0320441E-001	1.775089243219954E+000
-1.0196085E-001	1.775196164702365E+000
-1.0101929E-001	1.775229405749741E+000
-1.0029870E-001	1.775217399001125E+000
-9.8976448E-002	1.775405239152107E+000
-9.8060325E-002	1.775803300517575E+000
-9.7364970E-002	1.775776047949433E+000
-9.6249081E-002	1.775871717474544E+000
-9.5083967E-002	1.776043017153391E+000
-9.4048642E-002	1.776660068097280E+000
-9.2791930E-002	1.775907537727456E+000
-9.2032507E-002	1.776366894167879E+000
-9.0886347E-002	1.776480744922345E+000
-8.9995243E-002	1.777044140354349E+000
-8.9129120E-002	1.776467276944047E+000
-8.8107675E-002	1.776789627561630E+000
-8.6926177E-002	1.777179665863514E+000
-8.6087853E-002	1.776649089599092E+000
-8.5174762E-002	1.777561457224479E+000
-8.4149219E-002	1.777497830490276E+000
-8.2763389E-002	1.777676181936712E+000
-8.2041092E-002	1.777621675840599E+000
-8.1004851E-002	1.778291848798597E+000
-8.0088153E-002	1.778373975334052E+000
-7.9018503E-002	1.778050437017725E+000
-7.8154922E-002	1.778572248363943E+000
-7.7046640E-002	1.778943899176138E+000
-7.6248959E-002	1.778359942966034E+000
-7.5122781E-002	1.778477690010163E+000
-7.4057825E-002	1.778618998423688E+000
-7.3065564E-002	1.779309215369040E+000
-7.2026774E-002	1.779830305388675E+000
-7.0894025E-002	1.779414660126499E+000
-7.0002235E-002	1.779413575651467E+000
-6.9056988E-002	1.779696503999048E+000
-6.7965388E-002	1.779678392873404E+000
-6.6991299E-002	1.779866555774657E+000
-6.5914765E-002	1.780104688808500E+000
-6.4850293E-002	1.779986064743099E+000
-6.3994996E-002	1.780385786736453E+000
-6.2943786E-002	1.779856207233713E+000
-6.2208667E-002	1.780981949082118E+000
-6.0993817E-002	1.780514770635861E+000
-5.9909660E-002	1.780808609427133E+000
-5.8993883E-002	1.780406344819951E+000
-5.8001757E-002	1.780106740141353E+000
-5.7135761E-002	1.780766221056663E+000
-5.6032799E-002	1.780528042051529E+000
-5.5115256E-002	1.781210794668051E+000
-5.4060642E-002	1.780961134643469E+000
-5.3120285E-002	1.780884480034862E+000
-5.2159574E-002	1.781764226169621E+000
-5.1285591E-002	1.781159599622097E+000
-5.0122071E-002	1.781494905551277E+000
-4.9036786E-002	1.781092741419259E+000
-4.8079077E-002	1.781301578989734E+000
-4.7159925E-002	1.782031124112777E+000
-4.6058051E-002	1.782479646037346E+000
-4.5014679E-002	1.782198260503790E+000
-4.4079203E-002	1.782256914509667E+000
-4.3134592E-002	1.783336457986866E+000
-4.2162415E-002	1.782524889541996E+000
-4.1229557E-002	1.783175010617814E+000
-4.0215511E-002	1.783315929549719E+000
-3.8967565E-002	1.783161147049181E+000
-3.8072065E-002	1.783272332317921E+000
-3.6887866E-002	1.782950569910035E+000
-3.6093663E-002	1.783486631457459E+000
-3.5121839E-002	1.783214837865820E+000
-3.3996359E-002	1.783360230977894E+000
-3.3126425E-002	1.783550963081693E+000
-3.1790357E-002	1.783428376961211E+000
-3.1089364E-002	1.783333530856506E+000
-3.0119093E-002	1.783947047811974E+000
-2.8802421E-002	1.783956963478950E+000
-2.8103882E-002	1.783929179388068E+000
-2.7160173E-002	1.783903716622707E+000
-2.5985582E-002	1.784135616487923E+000
-2.5042247E-002	1.783939287066467E+000
-2.4043234E-002	1.784468379195015E+000
-2.3024067E-002	1.784342582579018E+000
-2.2156253E-002	1.784116327762597E+000
-2.1123150E-002	1.784884487746485E+000
-2.0184105E-002	1.784743671339969E+000
-1.9334747E-002	1.785015305435216E+000
-1.8069128E-002	1.785214501045441E+000
-1.7148774E-002	1.784832424035777E+000
-1.6277375E-002	1.784876387982017E+000
-1.4950075E-002	1.785404226846161E+000
-1.4072291E-002	1.784620937649848E+000
-1.3078363E-002	1.785230838982358E+000
-1.2238448E-002	1.785272307142066E+000
-1.1060081E-002	1.784979420403644E+000
-1.0284920E-002	1.785208281472173E+000
-8.9865355E-003	1.785286350934591E+000
-8.0421446E-003	1.785770284080956E+000
-7.0080380E-003	1.785417889250116E+000
-6.1092391E-003	1.785496677237528E+000
-4.9164467E-003	1.785864054052926E+000
-4.0942407E-003	1.786233233692851E+000
-3.0145119E-003	1.786119422978821E+000
-2.2848423E-003	1.786668717686819E+000
-1.2042166E-003	1.786574532864272E+000
-5.2723758E-006	1.786595408563258E+000
9.5497933E-004	1.786165631658207E+000
1.9573297E-003	1.786188808304292E+000
2.8402035E-003	1.786405261743944E+000
3.8082893E-003	1.787213670202571E+000
4.8174425E-003	1.786943874977254E+000
5.7696817E-003	1.787085388821586E+000
6.3543785E-003	1.786618845929187E+000
6.6203149E-003	1.786223498257723E+000