EC-Lab ASCII FILE
Nb header lines : 63                          

Linear Sweep Voltammetry

Run on channel : 6 (SN 13765)
User : 
Electrode connection : standard
Potential control : Ewe
Ewe ctrl range : min = -2.50 V, max = 2.50 V
Ewe,I filtering : <None>
Safety Limits :
	Do not start on E overload
Channel : Floating
Acquisition started on : 07/17/2026 14:19:58.172
Technique started on : 07/17/2026 14:19:59.169
Loaded Setting File :  C:\Users\EEM-620\Desktop\Wade\abao\20260629\N719_0629-0-1_C06.mpr
Saved on :
	File : N719_0717-h-1_C06.mpr
	Directory : C:\Users\EEM-620\Desktop\Wade\abao\20260717\
	Host : 192.109.209.200
Device : VSP-300 (SN 0025)
Address : 192.109.209.129
EC-LAB for windows v11.62 (software)
Internet server v27.00 (firmware)
Command interpretor v12.02 (firmware)
Electrode material : Au/Pd
Initial state : 
Electrolyte : NaCl (0.2M)
Comments : Fe(CN)63-/Fe(CN)64- 5.10-3 M
Cable : ULC
Reference electrode : SCE Saturated Calomel Electrode (0.241 V)
Electrode surface area : 0.001 cm2
Characteristic mass : 0.001 g
Equivalent Weight : 0.000 g/eq.
Density : 0.000 g/cm3
Volume (V) : 0.001 cm3
Cycle Definition : Charge/Discharge alternance
tR (h:m:s)          0:00:5.0000         
dER/dt (mV/h)       0.0                 
dER (mV)            0                   
dtR (s)             0.0500              
dE/dt               10.000              
dE/dt unit          mV/s                
Ei (V)              -0.800              
vs.                 Ref                 
EL (V)              0.010               
vs.                 Ref                 
record              <I>                 
dI                  0.000               
unit dI             uA                  
tI (s)              0.0000              
step percent        50                  
N                   10                  
E range min (V)     -2.500              
E range max (V)     2.500               
I Range             Auto                
I Range min         Unset               
I Range max         Unset               
I Range init        Unset               
Bandwidth           8                   

Ewe/V	<I>/mA	
-2.3221278E-003	0.000000000000000E+000
-2.5817717E-003	0.000000000000000E+000
-2.6084995E-003	0.000000000000000E+000
-2.3984935E-003	0.000000000000000E+000
-2.9406908E-003	0.000000000000000E+000
-3.1774251E-003	0.000000000000000E+000
-3.1125143E-003	0.000000000000000E+000
-2.9330545E-003	0.000000000000000E+000
-3.0246936E-003	0.000000000000000E+000
-2.8681434E-003	0.000000000000000E+000
-2.7383217E-003	0.000000000000000E+000
-3.3530667E-003	0.000000000000000E+000
-2.7535947E-003	0.000000000000000E+000
-2.5817717E-003	0.000000000000000E+000
-2.7077750E-003	0.000000000000000E+000
-4.0556327E-003	0.000000000000000E+000
-3.1926981E-003	0.000000000000000E+000
-2.6925020E-003	0.000000000000000E+000
-3.2881554E-003	0.000000000000000E+000
-2.8910532E-003	0.000000000000000E+000
-2.8261424E-003	0.000000000000000E+000
-2.7192300E-003	0.000000000000000E+000
-2.5130424E-003	0.000000000000000E+000
-2.3335826E-003	0.000000000000000E+000
-2.9330545E-003	0.000000000000000E+000
-2.6314093E-003	0.000000000000000E+000
-1.9708443E-003	0.000000000000000E+000
-2.5550434E-003	0.000000000000000E+000
-3.1850617E-003	0.000000000000000E+000
-2.6657737E-003	0.000000000000000E+000
-2.7459580E-003	0.000000000000000E+000
-3.0094204E-003	0.000000000000000E+000
-3.2499726E-003	0.000000000000000E+000
-3.1430605E-003	0.000000000000000E+000
-3.5707094E-003	0.000000000000000E+000
-3.6776217E-003	0.000000000000000E+000
-3.8379896E-003	0.000000000000000E+000
-2.6505010E-003	0.000000000000000E+000
-3.1239688E-003	0.000000000000000E+000
-2.8681434E-003	0.000000000000000E+000
-3.4981619E-003	0.000000000000000E+000
-3.0437850E-003	0.000000000000000E+000
-3.1010590E-003	0.000000000000000E+000
-2.8719616E-003	0.000000000000000E+000
-2.6657737E-003	0.000000000000000E+000
-2.2304885E-003	0.000000000000000E+000
-3.1965165E-003	0.000000000000000E+000
-2.8146876E-003	0.000000000000000E+000
-3.0972413E-003	0.000000000000000E+000
-2.1846693E-003	0.000000000000000E+000
-3.6318018E-003	0.000000000000000E+000
-3.7387141E-003	0.000000000000000E+000
-3.2652458E-003	0.000000000000000E+000
-3.6012558E-003	0.000000000000000E+000
-2.9101444E-003	0.000000000000000E+000
-4.0059951E-003	0.000000000000000E+000
-3.1659703E-003	0.000000000000000E+000
-3.1125140E-003	0.000000000000000E+000
-2.5741349E-003	0.000000000000000E+000
-2.6428644E-003	0.000000000000000E+000
-3.1888799E-003	0.000000000000000E+000
-7.9006525E-003	0.000000000000000E+000
-7.9426542E-003	0.000000000000000E+000
-7.8906989E-001	-2.536426496505737E+000
-7.8877228E-001	-2.511944052797774E+000
-7.8766352E-001	-2.482243853586695E+000
-7.8652090E-001	-2.460498653144249E+000
-7.8570503E-001	-2.442883532908237E+000
-7.8503495E-001	-2.427649569180275E+000
-7.8370601E-001	-2.414354839850500E+000
-7.8262031E-001	-2.401723651698344E+000
-7.8135037E-001	-2.390283407988370E+000
-7.8068340E-001	-2.380122743714935E+000
-7.7977908E-001	-2.369976953499844E+000
-7.7873856E-001	-2.360620972768681E+000
-7.7776593E-001	-2.351456183526253E+000
-7.7673459E-001	-2.343025130530194E+000
-7.7583820E-001	-2.334282384279851E+000
-7.7481616E-001	-2.326305173337454E+000
-7.7380198E-001	-2.318636462368346E+000
-7.7269363E-001	-2.310491043501813E+000
-7.7187932E-001	-2.303122748655296E+000
-7.7083606E-001	-2.295543975300262E+000
-7.6959795E-001	-2.288008290961081E+000
-7.6881230E-001	-2.280882529638426E+000
-7.6782584E-001	-2.273446774521013E+000
-7.6683187E-001	-2.266751525578668E+000
-7.6580542E-001	-2.259514498765810E+000
-7.6470947E-001	-2.252933976049467E+000
-7.6370686E-001	-2.245212137975081E+000
-7.6277661E-001	-2.238521979638811E+000
-7.6168191E-001	-2.231773580405044E+000
-7.6077139E-001	-2.225102163575313E+000
-7.5979221E-001	-2.218472948504813E+000
-7.5886989E-001	-2.211451317950617E+000
-7.5781608E-001	-2.205034728955342E+000
-7.5678766E-001	-2.198500910566910E+000
-7.5565219E-001	-2.191836654192102E+000
-7.5477606E-001	-2.185603113086135E+000
-7.5389224E-001	-2.179076127117085E+000
-7.5266385E-001	-2.172683961965423E+000
-7.5162405E-001	-2.165855385639048E+000
-7.5080639E-001	-2.159666585018389E+000
-7.4964976E-001	-2.153298622480145E+000
-7.4873912E-001	-2.147059758228288E+000
-7.4758792E-001	-2.140604545144146E+000
-7.4678296E-001	-2.134548136481545E+000
-7.4566478E-001	-2.128565278042238E+000
-7.4465311E-001	-2.122341932876253E+000
-7.4386895E-001	-2.116044829565062E+000
-7.4278963E-001	-2.109423178721414E+000
-7.4182034E-001	-2.103806201782493E+000
-7.4076504E-001	-2.097804475713652E+000
-7.3987240E-001	-2.091659229417715E+000
-7.3888266E-001	-2.085434441765145E+000
-7.3789173E-001	-2.079484724888093E+000
-7.3675793E-001	-2.073381349645445E+000
-7.3583156E-001	-2.067391790173673E+000
-7.3477882E-001	-2.062068736111684E+000
-7.3380870E-001	-2.055698193476246E+000
-7.3276764E-001	-2.049588942969296E+000
-7.3183393E-001	-2.043671048901700E+000
-7.3097026E-001	-2.038019188469653E+000
-7.2991049E-001	-2.031945446299181E+000
-7.2859263E-001	-2.025875307496202E+000
-7.2776890E-001	-2.020029065785579E+000
-7.2662735E-001	-2.014197379902551E+000
-7.2577071E-001	-2.008565646467316E+000
-7.2484678E-001	-2.002949450027055E+000
-7.2383410E-001	-1.997656546533108E+000
-7.2284365E-001	-1.991516377145459E+000
-7.2174972E-001	-1.985591985285277E+000
-7.2087818E-001	-1.979846276066922E+000
-7.1991777E-001	-1.974173803509506E+000
-7.1885544E-001	-1.968826572652219E+000
-7.1793073E-001	-1.962852022438138E+000
-7.1688718E-001	-1.957178249043356E+000
-7.1589905E-001	-1.951636242369815E+000
-7.1484149E-001	-1.945958194010458E+000
-7.1380329E-001	-1.939865510496823E+000
-7.1281409E-001	-1.934843231406475E+000
-7.1181858E-001	-1.929227772828508E+000
-7.1083242E-001	-1.923523357345005E+000
-7.0993865E-001	-1.918293413740614E+000
-7.0888907E-001	-1.912433995193026E+000
-7.0789272E-001	-1.907114823659260E+000
-7.0706141E-001	-1.901732618886008E+000
-7.0580083E-001	-1.896077298028340E+000
-7.0490921E-001	-1.891053724344133E+000
-7.0389873E-001	-1.885155831228893E+000
-7.0271885E-001	-1.879805612067372E+000
-7.0173955E-001	-1.874629021794704E+000
-7.0093924E-001	-1.869119117072714E+000
-6.9996297E-001	-1.863742428797259E+000
-6.9873792E-001	-1.858409925467441E+000
-6.9781077E-001	-1.852990207325316E+000
-6.9676346E-001	-1.847434992591536E+000
-6.9587487E-001	-1.841991758456935E+000
-6.9487804E-001	-1.836938330708314E+000
-6.9368970E-001	-1.831422011333480E+000
-6.9280767E-001	-1.826378174402095E+000
-6.9182640E-001	-1.821157801338522E+000
-6.9078100E-001	-1.815746654790866E+000
-6.8989033E-001	-1.810635096828472E+000
-6.8879914E-001	-1.805277063614803E+000
-6.8776459E-001	-1.799948497778843E+000
-6.8683535E-001	-1.794897173658057E+000
-6.8580645E-001	-1.789769274769002E+000
-6.8482745E-001	-1.784442377587155E+000
-6.8382865E-001	-1.779480505730465E+000
-6.8277872E-001	-1.774365564187368E+000
-6.8178046E-001	-1.769293727698145E+000
-6.8098801E-001	-1.763950665359680E+000
-6.7973113E-001	-1.758663215019091E+000
-6.7884761E-001	-1.753594444029865E+000
-6.7796111E-001	-1.748627978534522E+000
-6.7694795E-001	-1.743458942130765E+000
-6.7593753E-001	-1.738630782560430E+000
-6.7486382E-001	-1.733430212846514E+000
-6.7379832E-001	-1.728366554059360E+000
-6.7303050E-001	-1.723359745282607E+000
-6.7198569E-001	-1.718522964252358E+000
-6.7095542E-001	-1.713531789680321E+000
-6.6990918E-001	-1.708292528656258E+000
-6.6875947E-001	-1.703074505759609E+000
-6.6774309E-001	-1.698132563244418E+000
-6.6682774E-001	-1.693506670406848E+000
-6.6589189E-001	-1.688451815258574E+000
-6.6489100E-001	-1.683887920518096E+000
-6.6379297E-001	-1.678746987548141E+000
-6.6288757E-001	-1.673908871081142E+000
-6.6190654E-001	-1.669126966554481E+000
-6.6098517E-001	-1.664026366615742E+000
-6.5993011E-001	-1.659397053497806E+000
-6.5884095E-001	-1.654054068248243E+000
-6.5788156E-001	-1.649414151079124E+000
-6.5683681E-001	-1.644645020089758E+000
-6.5589052E-001	-1.639938415306013E+000
-6.5485108E-001	-1.635139779912102E+000
-6.5376610E-001	-1.630364617539776E+000
-6.5276510E-001	-1.625521731793992E+000
-6.5187418E-001	-1.620649276508228E+000
-6.5078765E-001	-1.615982757443285E+000
-6.4965433E-001	-1.610913140906227E+000
-6.4876282E-001	-1.605986869997455E+000
-6.4787906E-001	-1.601705995186290E+000
-6.4688784E-001	-1.596675395137735E+000
-6.4585352E-001	-1.591972043392833E+000
-6.4485312E-001	-1.587567884341158E+000
-6.4384758E-001	-1.582609539506612E+000
-6.4273882E-001	-1.578198483144789E+000
-6.4170027E-001	-1.573156315337073E+000
-6.4090461E-001	-1.568892374082850E+000
-6.3997686E-001	-1.563968479909274E+000
-6.3880241E-001	-1.559299905183046E+000
-6.3780332E-001	-1.554603408470200E+000
-6.3690734E-001	-1.550022314189864E+000
-6.3599634E-001	-1.545145389934381E+000
-6.3483071E-001	-1.541040940693129E+000
-6.3364410E-001	-1.535887521135820E+000
-6.3283080E-001	-1.531439140301057E+000
-6.3190675E-001	-1.526954091671442E+000
-6.3086325E-001	-1.522076882560974E+000
-6.2994170E-001	-1.517854060425805E+000
-6.2892151E-001	-1.512905528423961E+000
-6.2782270E-001	-1.508551125203250E+000
-6.2698627E-001	-1.504063445522831E+000
-6.2585539E-001	-1.499520283162212E+000
-6.2499988E-001	-1.495227298112930E+000
-6.2384188E-001	-1.490418808603728E+000
-6.2259668E-001	-1.485995652331030E+000
-6.2180096E-001	-1.481706564625107E+000
-6.2088615E-001	-1.476971334191386E+000
-6.1982524E-001	-1.472615885146226E+000
-6.1893964E-001	-1.468075201191290E+000
-6.1772412E-001	-1.463289091294570E+000
-6.1679363E-001	-1.459036696599910E+000
-6.1592728E-001	-1.454803798899601E+000
-6.1485195E-001	-1.450142296100111E+000
-6.1385775E-001	-1.446074084329290E+000
-6.1303335E-001	-1.441215709679661E+000
-6.1189944E-001	-1.436962380233795E+000
-6.1085671E-001	-1.432691512422434E+000
-6.0977280E-001	-1.428245742425887E+000
-6.0886252E-001	-1.424221080853862E+000
-6.0789841E-001	-1.419779600506576E+000
-6.0685921E-001	-1.415182409187153E+000
-6.0578954E-001	-1.410783789737140E+000
-6.0487646E-001	-1.406381136703272E+000
-6.0384786E-001	-1.402076730159690E+000
-6.0311347E-001	-1.398017069197445E+000
-6.0186750E-001	-1.393863728752848E+000
-6.0089785E-001	-1.389296283324564E+000
-5.9995896E-001	-1.384944655864997E+000
-5.9903747E-001	-1.380653163073244E+000
-5.9797281E-001	-1.376337434445864E+000
-5.9682411E-001	-1.371840701472977E+000
-5.9585446E-001	-1.367934912305188E+000
-5.9466362E-001	-1.363434546505022E+000
-5.9388655E-001	-1.359451386939590E+000
-5.9287703E-001	-1.355026630063856E+000
-5.9181494E-001	-1.351074185234534E+000
-5.9089726E-001	-1.346711434837847E+000
-5.8978891E-001	-1.342475383370012E+000
-5.8891904E-001	-1.338225278918127E+000
-5.8794844E-001	-1.334273186960704E+000
-5.8685976E-001	-1.330005140766794E+000
-5.8589780E-001	-1.325880891195049E+000
-5.8504045E-001	-1.321731927908128E+000
-5.8390480E-001	-1.317363387200826E+000
-5.8289802E-001	-1.313199737281712E+000
-5.8177471E-001	-1.309117465521451E+000
-5.8086264E-001	-1.304952286606367E+000
-5.7976294E-001	-1.301207309105882E+000
-5.7893389E-001	-1.296707711975881E+000
-5.7793456E-001	-1.292997597099800E+000
-5.7675689E-001	-1.288837062401904E+000
-5.7576793E-001	-1.284220184992858E+000
-5.7480389E-001	-1.280742085302077E+000
-5.7382399E-001	-1.275946862029808E+000
-5.7269192E-001	-1.272425422467246E+000
-5.7187521E-001	-1.268106715960634E+000
-5.7078439E-001	-1.264152525061811E+000
-5.6984538E-001	-1.260105053479410E+000
-5.6886190E-001	-1.256305065281964E+000
-5.6797075E-001	-1.252063488518750E+000
-5.6695610E-001	-1.248005649990990E+000
-5.6585604E-001	-1.243766696640733E+000
-5.6480539E-001	-1.239879289297043E+000
-5.6395626E-001	-1.235605013469691E+000
-5.6277406E-001	-1.231570619399903E+000
-5.6183583E-001	-1.227770679664831E+000
-5.6077027E-001	-1.224025117716299E+000
-5.5968398E-001	-1.220020983368158E+000
-5.5878282E-001	-1.216107046846854E+000
-5.5777717E-001	-1.211613635222117E+000
-5.5674875E-001	-1.208026748840453E+000
-5.5602145E-001	-1.203992582520202E+000
-5.5478042E-001	-1.199823032788659E+000
-5.5398583E-001	-1.196233619418409E+000
-5.5297744E-001	-1.192124104578989E+000
-5.5172873E-001	-1.188511497996473E+000
-5.5094904E-001	-1.184259660679984E+000
-5.4992902E-001	-1.180609118999386E+000
-5.4905581E-001	-1.176388378496520E+000
-5.4782104E-001	-1.172785611021352E+000
-5.4690892E-001	-1.168857224975469E+000
-5.4580444E-001	-1.164773593622223E+000
-5.4485708E-001	-1.161211618488606E+000
-5.4391932E-001	-1.157186844282679E+000
-5.4279697E-001	-1.153196106768315E+000
-5.4193532E-001	-1.149874441612085E+000
-5.4095548E-001	-1.145524588723980E+000
-5.4006517E-001	-1.142224920016749E+000
-5.3885502E-001	-1.137928939078060E+000
-5.3802854E-001	-1.134372965467199E+000
-5.3690398E-001	-1.130192390608568E+000
-5.3592676E-001	-1.126676435481861E+000
-5.3493762E-001	-1.122828143890260E+000
-5.3366971E-001	-1.119125287050714E+000
-5.3275317E-001	-1.115214442903248E+000
-5.3169417E-001	-1.111408445846148E+000
-5.3101742E-001	-1.107421368682534E+000
-5.2982134E-001	-1.103835927253518E+000
-5.2906513E-001	-1.100034684632661E+000
-5.2793372E-001	-1.096789817351054E+000
-5.2686554E-001	-1.092715854722035E+000
-5.2586979E-001	-1.088857064644494E+000
-5.2494931E-001	-1.085160265201019E+000
-5.2360511E-001	-1.081629985322547E+000
-5.2284795E-001	-1.077752606499972E+000
-5.2192593E-001	-1.074037947588497E+000
-5.2106869E-001	-1.070366131486713E+000
-5.1984549E-001	-1.066732640643469E+000
-5.1884800E-001	-1.062917124066089E+000
-5.1779205E-001	-1.059261920551460E+000
-5.1691699E-001	-1.055782444842438E+000
-5.1582533E-001	-1.052166135498773E+000
-5.1468962E-001	-1.048589797069626E+000
-5.1385105E-001	-1.044759414259188E+000
-5.1278853E-001	-1.040609259986216E+000
-5.1175612E-001	-1.037272086022076E+000
-5.1082802E-001	-1.033813624965680E+000
-5.0975472E-001	-1.030161273010351E+000
-5.0887901E-001	-1.026231608357797E+000
-5.0781184E-001	-1.022974590460457E+000
-5.0696480E-001	-1.019156435711519E+000
-5.0581002E-001	-1.016083947571804E+000
-5.0498265E-001	-1.012455579445319E+000
-5.0394475E-001	-1.008582119726471E+000
-5.0279421E-001	-1.005226337452964E+000
-5.0175095E-001	-1.001794336846578E+000
-5.0104308E-001	-9.975966612498013E-001
-4.9969536E-001	-9.943291444365920E-001
-4.9892348E-001	-9.909937079581965E-001
-4.9792603E-001	-9.872887748535046E-001
-4.9682996E-001	-9.835190481825755E-001
-4.9571523E-001	-9.801148503190955E-001
-4.9498883E-001	-9.768734673187662E-001
-4.9382204E-001	-9.731951509084968E-001
-4.9283332E-001	-9.697383883650659E-001
-4.9191767E-001	-9.662888198475308E-001
-4.9084756E-001	-9.626923112405663E-001
-4.8986459E-001	-9.592486528886681E-001
-4.8883286E-001	-9.557132375298849E-001
-4.8807189E-001	-9.522836445658314E-001
-4.8684427E-001	-9.490693501300278E-001
-4.8572099E-001	-9.455461292245211E-001
-4.8491582E-001	-9.414847371754798E-001
-4.8390204E-001	-9.387015903256231E-001
-4.8292270E-001	-9.353544910748823E-001
-4.8197296E-001	-9.318716864067156E-001
-4.8094022E-001	-9.280902000205353E-001
-4.7997367E-001	-9.249710567571503E-001
-4.7898370E-001	-9.215244937826075E-001
-4.7788027E-001	-9.179380672435302E-001
-4.7683865E-001	-9.146304718322207E-001
-4.7594959E-001	-9.114327312067703E-001
-4.7474459E-001	-9.076840475510402E-001
-4.7388735E-001	-9.043370315598107E-001
-4.7307464E-001	-9.014456589464785E-001
-4.7201657E-001	-8.978053089830702E-001
-4.7085074E-001	-8.943039465833618E-001
-4.6986973E-001	-8.909918886522270E-001
-4.6891847E-001	-8.875246984815153E-001
-4.6791124E-001	-8.843886107206327E-001
-4.6682346E-001	-8.809159718745363E-001
-4.6584433E-001	-8.777167503204595E-001
-4.6485877E-001	-8.742201106139866E-001
-4.6400949E-001	-8.711341391097065E-001
-4.6288088E-001	-8.676623137736783E-001
-4.6181136E-001	-8.643428174157961E-001
-4.6104199E-001	-8.610499272001704E-001
-4.5973128E-001	-8.575552312864190E-001
-4.5890266E-001	-8.541031517088380E-001
-4.5785642E-001	-8.511796467690056E-001
-4.5679498E-001	-8.477429370913256E-001
-4.5589978E-001	-8.442169710649168E-001
-4.5485714E-001	-8.413890952037448E-001
-4.5394120E-001	-8.382256766436278E-001
-4.5299062E-001	-8.349383875084619E-001
-4.5184708E-001	-8.319365307688686E-001
-4.5075718E-001	-8.285445812399743E-001
-4.4991258E-001	-8.250855508829744E-001
-4.4906759E-001	-8.217358782335538E-001
-4.4788983E-001	-8.185855906318729E-001
-4.4690189E-001	-8.153057001690529E-001
-4.4577450E-001	-8.122376031069845E-001
-4.4502437E-001	-8.090049131977501E-001
-4.4379660E-001	-8.057463392615354E-001
-4.4290507E-001	-8.025178649911169E-001
-4.4213405E-001	-7.994013154060760E-001
-4.4085845E-001	-7.960407103377360E-001
-4.3992913E-001	-7.928329933848666E-001
-4.3898666E-001	-7.899529308394257E-001
-4.3809462E-001	-7.866965740643135E-001
-4.3686643E-001	-7.835919416889006E-001
-4.3610531E-001	-7.802430601089938E-001
-4.3499929E-001	-7.773652624476850E-001
-4.3371037E-001	-7.741124311255110E-001
-4.3281272E-001	-7.712040451007756E-001
-4.3183097E-001	-7.678047708339175E-001
-4.3095204E-001	-7.648927310159319E-001
-4.3001869E-001	-7.613445154770684E-001
-4.2878160E-001	-7.584277971613177E-001
-4.2805123E-001	-7.555681483493671E-001
-4.2690447E-001	-7.526076762350655E-001
-4.2607212E-001	-7.493222411721958E-001
-4.2480579E-001	-7.464388431325570E-001
-4.2411774E-001	-7.433018914803320E-001
-4.2294368E-001	-7.400072477757931E-001
-4.2180622E-001	-7.373242412350616E-001
-4.2094794E-001	-7.342355051250422E-001
-4.1988054E-001	-7.312751592447384E-001
-4.1904962E-001	-7.276492308699254E-001
-4.1802189E-001	-7.247523030749088E-001
-4.1686356E-001	-7.218498556819761E-001
-4.1602746E-001	-7.187614264311613E-001
-4.1489723E-001	-7.160551092690888E-001
-4.1386890E-001	-7.129839072607279E-001
-4.1295561E-001	-7.099322998827304E-001
-4.1188058E-001	-7.067842711177157E-001
-4.1085112E-001	-7.039423916294218E-001
-4.1009489E-001	-7.009036327125884E-001
-4.0895939E-001	-6.976311177153256E-001
-4.0783533E-001	-6.948423469639664E-001
-4.0698850E-001	-6.920914538204652E-001
-4.0582708E-001	-6.884514193389455E-001
-4.0490243E-001	-6.860324930123713E-001
-4.0384182E-001	-6.827968366582097E-001
-4.0277693E-001	-6.800421431997572E-001
-4.0185627E-001	-6.771892168455667E-001
-4.0098444E-001	-6.739020155811737E-001
-4.0005520E-001	-6.712487291062836E-001
-3.9887378E-001	-6.684463030348222E-001
-3.9799559E-001	-6.653470997871080E-001
-3.9685002E-001	-6.624357238068495E-001
-3.9598137E-001	-6.596053173696546E-001
-3.9483023E-001	-6.568849288892959E-001
-3.9385751E-001	-6.538360081817467E-001
-3.9283219E-001	-6.510026374900786E-001
-3.9189816E-001	-6.480254935941367E-001
-3.9084962E-001	-6.454572126407325E-001
-3.9007556E-001	-6.425213641314595E-001
-3.8903561E-001	-6.395595682593315E-001
-3.8800159E-001	-6.364838921775391E-001
-3.8682279E-001	-6.336952586554823E-001
-3.8586035E-001	-6.310560032359778E-001
-3.8499597E-001	-6.279132348243823E-001
-3.8388652E-001	-6.252223920353055E-001
-3.8291270E-001	-6.225716462794428E-001
-3.8199353E-001	-6.199021427029816E-001
-3.8099480E-001	-6.169126450463551E-001
-3.7988770E-001	-6.139575328030009E-001
-3.7885675E-001	-6.110638966438944E-001
-3.7778282E-001	-6.083090968841489E-001
-3.7694147E-001	-6.055372765770652E-001
-3.7586114E-001	-6.028770252510354E-001
-3.7503394E-001	-6.001530480298580E-001
-3.7397319E-001	-5.972404929084902E-001
-3.7301263E-001	-5.942975726944439E-001
-3.7193334E-001	-5.915697189232803E-001
-3.7082118E-001	-5.891352854669105E-001
-3.6978728E-001	-5.859482413226802E-001
-3.6880380E-001	-5.838406740009514E-001
-3.6791885E-001	-5.805448355084200E-001
-3.6709288E-001	-5.780968710337402E-001
-3.6593527E-001	-5.756037767838533E-001
-3.6506939E-001	-5.727897909366442E-001
-3.6402872E-001	-5.699821020179554E-001
-3.6280489E-001	-5.673523683928785E-001
-3.6195022E-001	-5.645533758043131E-001
-3.6106485E-001	-5.622514551401148E-001
-3.6015835E-001	-5.591825793186822E-001
-3.5899106E-001	-5.564900800861690E-001
-3.5785872E-001	-5.533479302933983E-001
-3.5688889E-001	-5.513452429462369E-001
-3.5596335E-001	-5.486225334720451E-001
-3.5499278E-001	-5.461913294470229E-001
-3.5389152E-001	-5.430614493649299E-001
-3.5278904E-001	-5.408177578787559E-001
-3.5194799E-001	-5.381830878969689E-001
-3.5104096E-001	-5.354269120704251E-001
-3.4974587E-001	-5.325834661954723E-001
-3.4893623E-001	-5.299092725747183E-001
-3.4787831E-001	-5.273590237592121E-001
-3.4702796E-001	-5.248116783588275E-001
-3.4597322E-001	-5.226239408193898E-001
-3.4484491E-001	-5.198519991503847E-001
-3.4383619E-001	-5.169857823256603E-001
-3.4279236E-001	-5.145773977317205E-001
-3.4184903E-001	-5.123677780782727E-001
-3.4096956E-001	-5.095915177900006E-001
-3.4017068E-001	-5.069788092816320E-001
-3.3894345E-001	-5.045199195450145E-001
-3.3794802E-001	-5.018941208858165E-001
-3.3691281E-001	-4.992751606084669E-001
-3.3579764E-001	-4.966526133881004E-001
-3.3505315E-001	-4.940903607617928E-001
-3.3391780E-001	-4.919194096906319E-001
-3.3298600E-001	-4.896735949734881E-001
-3.3190113E-001	-4.869938309269912E-001
-3.3083856E-001	-4.839850675176695E-001
-3.2997075E-001	-4.812947433434793E-001
-3.2905838E-001	-4.790499736037512E-001
-3.2795739E-001	-4.764687277541118E-001
-3.2696384E-001	-4.742089563773728E-001
-3.2580498E-001	-4.716414340806239E-001
-3.2498032E-001	-4.693400593670085E-001
-3.2395774E-001	-4.666022991554604E-001
-3.2294935E-001	-4.641492503384725E-001
-3.2197642E-001	-4.617540979266899E-001
-3.2088724E-001	-4.593033067606118E-001
-3.1992081E-001	-4.568088711411860E-001
-3.1896532E-001	-4.544876743292474E-001
-3.1809923E-001	-4.525134734533474E-001
-3.1693277E-001	-4.494496872993527E-001
-3.1588635E-001	-4.479315059003524E-001
-3.1465918E-001	-4.452601037229660E-001
-3.1366009E-001	-4.428532322659668E-001
-3.1290448E-001	-4.405008135018527E-001
-3.1167012E-001	-4.380703884418373E-001
-3.1065068E-001	-4.357026943178255E-001
-3.1009293E-001	-4.333033082937749E-001
-3.0876011E-001	-4.309813612727091E-001
-3.0751777E-001	-4.285561323775768E-001
-3.0669039E-001	-4.262350599660909E-001
-3.0572432E-001	-4.238602398570954E-001
-3.0465057E-001	-4.215535650512674E-001
-3.0368647E-001	-4.191598812877020E-001
-3.0296069E-001	-4.169027921984032E-001
-3.0161166E-001	-4.146278937243757E-001
-3.0081382E-001	-4.122382888087515E-001
-2.9964533E-001	-4.099398439748922E-001
-2.9876766E-001	-4.076496770398474E-001
-2.9783240E-001	-4.054014620681596E-001
-2.9631609E-001	-4.030689126332305E-001
-2.9585832E-001	-4.007516618542111E-001
-2.9465535E-001	-3.985221841269082E-001
-2.9398358E-001	-3.962103774180212E-001
-2.9253834E-001	-3.939528887470578E-001
-2.9165184E-001	-3.917060070999234E-001
-2.9101884E-001	-3.894874908167996E-001
-2.8968519E-001	-3.872125069093366E-001
-2.8874534E-001	-3.849947044627013E-001
-2.8748524E-001	-3.828019766757891E-001
-2.8686222E-001	-3.805470667710473E-001
-2.8537562E-001	-3.782850773882702E-001
-2.8464147E-001	-3.760583145819894E-001
-2.8354606E-001	-3.739176786470182E-001
-2.8268546E-001	-3.716326756394146E-001
-2.8184161E-001	-3.694849210894766E-001
-2.8073725E-001	-3.673133032258473E-001
-2.7952304E-001	-3.650993193933170E-001
-2.7862531E-001	-3.629261154198549E-001
-2.7764425E-001	-3.607740782713291E-001
-2.7682117E-001	-3.586447463819282E-001
-2.7568501E-001	-3.564882149436972E-001
-2.7472681E-001	-3.543406418360212E-001
-2.7362144E-001	-3.521627892429624E-001
-2.7288598E-001	-3.500238536615594E-001
-2.7180681E-001	-3.478756819070918E-001
-2.7083093E-001	-3.457753584823671E-001
-2.6974270E-001	-3.436377402739956E-001
-2.6875502E-001	-3.415522349304010E-001
-2.6778707E-001	-3.394036207141147E-001
-2.6662925E-001	-3.373998616292715E-001
-2.6609287E-001	-3.352411043036860E-001
-2.6511940E-001	-3.331562565225679E-001
-2.6382130E-001	-3.310588970735888E-001
-2.6255623E-001	-3.289756756965765E-001
-2.6198879E-001	-3.269165827099374E-001
-2.6108259E-001	-3.248293707921300E-001
-2.6014796E-001	-3.227514925033404E-001
-2.5839874E-001	-3.207749066598433E-001
-2.5803071E-001	-3.187484991556677E-001
-2.5636235E-001	-3.166702765695479E-001
-2.5538528E-001	-3.146833240020039E-001
-2.5438595E-001	-3.126405676670840E-001
-2.5378987E-001	-3.106249188659360E-001
-2.5301054E-001	-3.085924405080330E-001
-2.5193247E-001	-3.065938994426425E-001
-2.5109562E-001	-3.046041096181233E-001
-2.4989980E-001	-3.025909339692423E-001
-2.4869497E-001	-3.006204442914440E-001
-2.4744874E-001	-2.986280090279054E-001
-2.4671453E-001	-2.966490713667529E-001
-2.4595706E-001	-2.946817573435884E-001
-2.4456908E-001	-2.927291004539088E-001
-2.4346378E-001	-2.907650750458085E-001
-2.4254222E-001	-2.888277181665658E-001
-2.4165745E-001	-2.869475740870384E-001
-2.4043812E-001	-2.849267954216748E-001
-2.3966347E-001	-2.830130543421827E-001
-2.3855250E-001	-2.810651124620218E-001
-2.3781833E-001	-2.791824397044600E-001
-2.3634216E-001	-2.772497247076688E-001
-2.3564595E-001	-2.753958049363776E-001
-2.3486790E-001	-2.734352011509520E-001
-2.3352636E-001	-2.715836778214131E-001
-2.3270549E-001	-2.697333164760454E-001
-2.3156632E-001	-2.678533396166225E-001
-2.3067625E-001	-2.659182446422408E-001
-2.2997929E-001	-2.640809422490361E-001
-2.2866124E-001	-2.621928384113632E-001
-2.2754908E-001	-2.603816320839916E-001
-2.2681893E-001	-2.586000817655414E-001
-2.2589847E-001	-2.567486811981152E-001
-2.2487137E-001	-2.549326135798734E-001
-2.2395308E-001	-2.530828614339784E-001
-2.2297008E-001	-2.512239872443454E-001
-2.2161475E-001	-2.494056292582183E-001
-2.2069925E-001	-2.475987146781007E-001
-2.1947740E-001	-2.458056332198557E-001
-2.1848294E-001	-2.439969664451642E-001
-2.1741913E-001	-2.422498072738994E-001
-2.1691425E-001	-2.404445720905501E-001
-2.1591896E-001	-2.386621627326742E-001
-2.1521004E-001	-2.369231894543322E-001
-2.1366674E-001	-2.351626155100802E-001
-2.1269780E-001	-2.334598538086379E-001
-2.1190041E-001	-2.316701229730687E-001
-2.1082488E-001	-2.299473812997643E-001
-2.0953603E-001	-2.282240307303494E-001
-2.0887125E-001	-2.264407037032985E-001
-2.0787156E-001	-2.247413511678003E-001
-2.0684986E-001	-2.230013094980414E-001
-2.0571774E-001	-2.212936934083700E-001
-2.0504020E-001	-2.196343456153613E-001
-2.0368728E-001	-2.179169108470287E-001
-2.0272848E-001	-2.162529500546280E-001
-2.0184091E-001	-2.145756253936661E-001
-2.0065831E-001	-2.128997522371794E-001
-1.9985779E-001	-2.112518268012417E-001
-1.9855209E-001	-2.095501463239398E-001
-1.9791251E-001	-2.079474590373818E-001
-1.9690436E-001	-2.062643205917516E-001
-1.9541451E-001	-2.046383899050180E-001
-1.9484387E-001	-2.029873430039043E-001
-1.9372685E-001	-2.012964507937294E-001
-1.9270754E-001	-1.997121777040540E-001
-1.9179051E-001	-1.981343034033977E-001
-1.9059281E-001	-1.964517744495655E-001
-1.8976599E-001	-1.948265385193135E-001
-1.8903466E-001	-1.932957217225404E-001
-1.8773867E-001	-1.916499698224163E-001
-1.8672512E-001	-1.900906948441699E-001
-1.8575718E-001	-1.884644712939183E-001
-1.8493965E-001	-1.869381827612714E-001
-1.8384336E-001	-1.853234099776104E-001
-1.8280956E-001	-1.838240949148140E-001
-1.8140963E-001	-1.822242348937806E-001
-1.8067527E-001	-1.806589734947526E-001
-1.7966788E-001	-1.791485598605607E-001
-1.7868698E-001	-1.776177056858113E-001
-1.7777377E-001	-1.760944799106148E-001
-1.7670637E-001	-1.745439425910162E-001
-1.7579082E-001	-1.730184688888211E-001
-1.7516831E-001	-1.715360133282242E-001
-1.7336895E-001	-1.700468075254724E-001
-1.7256774E-001	-1.685675514723962E-001
-1.7174453E-001	-1.670564095074263E-001
-1.7068362E-001	-1.656043817013222E-001
-1.6989833E-001	-1.640693819909185E-001
-1.6901109E-001	-1.626374470107290E-001
-1.6797943E-001	-1.611781377621275E-001
-1.6712965E-001	-1.597291849105165E-001
-1.6574469E-001	-1.582873607711366E-001
-1.6494600E-001	-1.568494015200828E-001
-1.6406123E-001	-1.554206617142036E-001
-1.6294628E-001	-1.539327763440914E-001
-1.6178362E-001	-1.525585026204306E-001
-1.6085994E-001	-1.511508818701799E-001
-1.6000387E-001	-1.497296891175210E-001
-1.5875761E-001	-1.482898900285367E-001
-1.5758304E-001	-1.469271674844892E-001
-1.5682344E-001	-1.455456420468786E-001
-1.5575558E-001	-1.441768309342915E-001
-1.5523583E-001	-1.427609940933925E-001
-1.5361290E-001	-1.414507734071875E-001
-1.5285751E-001	-1.399999420434510E-001
-1.5175794E-001	-1.387218342024594E-001
-1.5070316E-001	-1.373566363558727E-001
-1.4971796E-001	-1.359935352964561E-001
-1.4888522E-001	-1.346431711550666E-001
-1.4799979E-001	-1.333636625635407E-001
-1.4684202E-001	-1.320351828884101E-001
-1.4570393E-001	-1.307393948340572E-001
-1.4485775E-001	-1.294514539617078E-001
-1.4345309E-001	-1.281387070659835E-001
-1.4265588E-001	-1.268568912658974E-001
-1.4200316E-001	-1.255264535408327E-001
-1.4106296E-001	-1.241986982346043E-001
-1.3954546E-001	-1.229361217227524E-001
-1.3874574E-001	-1.216843963980128E-001
-1.3784844E-001	-1.204107446339575E-001
-1.3643229E-001	-1.191675196298294E-001
-1.3549450E-001	-1.178978289770503E-001
-1.3481225E-001	-1.166790607902741E-001
-1.3342834E-001	-1.154064345346002E-001
-1.3262106E-001	-1.142027209548839E-001
-1.3178203E-001	-1.129489430329862E-001
-1.3048995E-001	-1.117334938953041E-001
-1.2980799E-001	-1.105536660880822E-001
-1.2860052E-001	-1.092950414383301E-001
-1.2767161E-001	-1.080801367104329E-001
-1.2652765E-001	-1.068915600447076E-001
-1.2557007E-001	-1.057782367354732E-001
-1.2442162E-001	-1.045857536847947E-001
-1.2349419E-001	-1.034382741220430E-001
-1.2297724E-001	-1.022698247839733E-001
-1.2203402E-001	-1.010277662557604E-001
-1.2060799E-001	-9.993006921959713E-002
-1.1975502E-001	-9.874720995624842E-002
-1.1887871E-001	-9.765424854039595E-002
-1.1765581E-001	-9.650412230338487E-002
-1.1707161E-001	-9.534838514540533E-002
-1.1580779E-001	-9.427209180690715E-002
-1.1485254E-001	-9.311451123061576E-002
-1.1361987E-001	-9.197481011937339E-002
-1.1277547E-001	-9.089953787579419E-002
-1.1175400E-001	-8.986512661256146E-002
-1.1057477E-001	-8.871905558964516E-002
-1.0977697E-001	-8.758245781064078E-002
-1.0896982E-001	-8.658688754291743E-002
-1.0768742E-001	-8.550389835188096E-002
-1.0671004E-001	-8.445900136225526E-002
-1.0561376E-001	-8.337644638528141E-002
-1.0479414E-001	-8.231896267427263E-002
-1.0362442E-001	-8.128631201193259E-002
-1.0281346E-001	-8.021675960885133E-002
-1.0213842E-001	-7.925755751885988E-002
-1.0103520E-001	-7.812869365982389E-002
-9.9983253E-002	-7.716593239456426E-002
-9.8891221E-002	-7.609970074659900E-002
-9.7632036E-002	-7.511700172391222E-002
-9.6506812E-002	-7.411959053646305E-002
-9.5880084E-002	-7.314539779219081E-002
-9.4330058E-002	-7.211429049709306E-002
-9.3894504E-002	-7.116261871200565E-002
-9.2842624E-002	-7.021047007637415E-002
-9.2154264E-002	-6.925003895432585E-002
-9.0449274E-002	-6.829182865691968E-002
-8.9381330E-002	-6.731951865367569E-002
-8.8765115E-002	-6.632415213863629E-002
-8.8182680E-002	-6.545856344644041E-002
-8.6705558E-002	-6.454144952887719E-002
-8.5617349E-002	-6.356221414171151E-002
-8.4986486E-002	-6.265362184502221E-002
-8.3981209E-002	-6.175917577584866E-002
-8.2676940E-002	-6.079595277917638E-002
-8.1792064E-002	-5.988820277464880E-002
-8.0651455E-002	-5.892419276965999E-002
-7.9678826E-002	-5.810644625443984E-002
-7.9302534E-002	-5.723093607876861E-002
-7.7562451E-002	-5.630600520547635E-002
-7.6844595E-002	-5.541131818124689E-002
-7.5644821E-002	-5.453496206448327E-002
-7.4950315E-002	-5.369137625934359E-002
-7.3340319E-002	-5.278101447054895E-002
-7.2709195E-002	-5.197230563499033E-002
-7.1652003E-002	-5.110677470239833E-002
-7.0927106E-002	-5.029313548261094E-002
-6.9595158E-002	-4.942324224652528E-002
-6.9291674E-002	-4.857423454604398E-002
-6.7882024E-002	-4.775773424275781E-002
-6.6472434E-002	-4.692257847636927E-002
-6.5984294E-002	-4.608572461963045E-002
-6.4461038E-002	-4.517210430709562E-002
-6.3730694E-002	-4.438578475652588E-002
-6.2444132E-002	-4.358295765188017E-002
-6.1508019E-002	-4.278615168813221E-002
-6.0618918E-002	-4.198761038910082E-002
-5.9609897E-002	-4.121198021824002E-002
-5.8290042E-002	-4.042428413285287E-002
-5.7703033E-002	-3.964068796083287E-002
-5.6773972E-002	-3.886710838587186E-002
-5.5446681E-002	-3.810767024427791E-002
-5.4656431E-002	-3.733030225906375E-002
-5.3520568E-002	-3.657890145701392E-002
-5.2680753E-002	-3.580900536487930E-002
-5.1620204E-002	-3.506368729842618E-002
-5.0349686E-002	-3.430553827072602E-002
-4.9542766E-002	-3.357149973449597E-002
-4.8636541E-002	-3.281959614940677E-002
-4.7717184E-002	-3.209051179389161E-002
-4.6522588E-002	-3.135701569374183E-002
-4.5357902E-002	-3.061816033786507E-002
-4.4714525E-002	-2.989049429177411E-002
-4.3575622E-002	-2.916258431912813E-002
-4.2569272E-002	-2.844704209430204E-002
-4.1447546E-002	-2.772197674063065E-002
-4.0403839E-002	-2.701360402557354E-002
-3.9173540E-002	-2.629148400888813E-002
-3.8621161E-002	-2.558635185576146E-002
-3.7223242E-002	-2.487381688268903E-002
-3.6535736E-002	-2.418511092697306E-002
-3.5534274E-002	-2.345901147156577E-002
-3.4781441E-002	-2.275145921157679E-002
-3.3558317E-002	-2.205557492346044E-002
-3.2265160E-002	-2.135644168709022E-002
-3.1639624E-002	-2.066054628058167E-002
-3.0405255E-002	-1.994825173298723E-002
-2.9637501E-002	-1.925562708716322E-002
-2.8622536E-002	-1.856186481718730E-002
-2.7706567E-002	-1.785819418943947E-002
-2.6589360E-002	-1.715491688716345E-002
-2.5520382E-002	-1.645059341616520E-002
-2.4217805E-002	-1.576393978614971E-002
-2.3380231E-002	-1.506831659719832E-002
-2.2087313E-002	-1.438230877371371E-002
-2.1701591E-002	-1.365645135928520E-002
-2.0576967E-002	-1.295622066094506E-002
-1.9524813E-002	-1.224349840238032E-002
-1.8553460E-002	-1.154906044816163E-002
-1.7525513E-002	-1.082734643542035E-002
-1.6874494E-002	-1.011550235691375E-002
-1.5611078E-002	-9.405677992964337E-003
-1.4307752E-002	-8.696428600362391E-003
-1.3343632E-002	-7.959704047405272E-003
-1.2669171E-002	-7.243539521812115E-003
-1.1338816E-002	-6.503970613401300E-003
-1.0743144E-002	-5.761164524732854E-003
-9.6534630E-003	-5.024273544054103E-003
-8.6267674E-003	-4.260297034677403E-003
-7.3117958E-003	-3.225252414188431E-003
-5.9505678E-003	-2.477610982033959E-003
-5.3877933E-003	-1.705947322382892E-003
-4.0292027E-003	-9.223906770589319E-004
-3.3165817E-003	-1.354437802092434E-004
-2.2205308E-003	6.703378834265012E-004
-8.7117648E-004	1.481804540364666E-003
7.6820899E-005	2.298674744249888E-003
8.6638908E-004	3.124513265699701E-003
1.8434173E-003	3.959015121196265E-003
2.9074477E-003	4.804806414068934E-003
3.9388682E-003	5.653770065252847E-003
5.3032143E-003	6.522218848759725E-003
5.8929282E-003	7.404293358343202E-003
6.4728777E-003	8.071474643676059E-003
6.7348634E-003	8.336888795549224E-003