EC-Lab ASCII FILE
Nb header lines : 63                          

Linear Sweep Voltammetry

Run on channel : 6 (SN 13765)
User : 
Electrode connection : standard
Potential control : Ewe
Ewe ctrl range : min = -2.50 V, max = 2.50 V
Ewe,I filtering : <None>
Safety Limits :
	Do not start on E overload
Channel : Floating
Acquisition started on : 07/17/2026 14:33:06.137
Technique started on : 07/17/2026 14:33:07.134
Loaded Setting File :  C:\Users\EEM-620\Desktop\Wade\abao\20260629\N719_0629-0-1_C06.mpr
Saved on :
	File : N719_0717-j-1_C06.mpr
	Directory : C:\Users\EEM-620\Desktop\Wade\abao\20260717\
	Host : 192.109.209.200
Device : VSP-300 (SN 0025)
Address : 192.109.209.129
EC-LAB for windows v11.62 (software)
Internet server v27.00 (firmware)
Command interpretor v12.02 (firmware)
Electrode material : Au/Pd
Initial state : 
Electrolyte : NaCl (0.2M)
Comments : Fe(CN)63-/Fe(CN)64- 5.10-3 M
Cable : ULC
Reference electrode : SCE Saturated Calomel Electrode (0.241 V)
Electrode surface area : 0.001 cm2
Characteristic mass : 0.001 g
Equivalent Weight : 0.000 g/eq.
Density : 0.000 g/cm3
Volume (V) : 0.001 cm3
Cycle Definition : Charge/Discharge alternance
tR (h:m:s)          0:00:5.0000         
dER/dt (mV/h)       0.0                 
dER (mV)            0                   
dtR (s)             0.0500              
dE/dt               10.000              
dE/dt unit          mV/s                
Ei (V)              -0.800              
vs.                 Ref                 
EL (V)              0.010               
vs.                 Ref                 
record              <I>                 
dI                  0.000               
unit dI             uA                  
tI (s)              0.0000              
step percent        50                  
N                   10                  
E range min (V)     -2.500              
E range max (V)     2.500               
I Range             Auto                
I Range min         Unset               
I Range max         Unset               
I Range init        Unset               
Bandwidth           8                   

Ewe/V	<I>/mA	
-6.4210385E-001	0.000000000000000E+000
-6.3803732E-001	0.000000000000000E+000
-6.3866347E-001	0.000000000000000E+000
-6.3874376E-001	0.000000000000000E+000
-6.3985479E-001	0.000000000000000E+000
-6.3917136E-001	0.000000000000000E+000
-6.3934702E-001	0.000000000000000E+000
-6.3901097E-001	0.000000000000000E+000
-6.3772804E-001	0.000000000000000E+000
-6.4101559E-001	0.000000000000000E+000
-6.4054978E-001	0.000000000000000E+000
-6.4023668E-001	0.000000000000000E+000
-6.3891935E-001	0.000000000000000E+000
-6.3864827E-001	0.000000000000000E+000
-6.3847643E-001	0.000000000000000E+000
-6.3902628E-001	0.000000000000000E+000
-6.4146620E-001	0.000000000000000E+000
-6.4016026E-001	0.000000000000000E+000
-6.3754857E-001	0.000000000000000E+000
-6.3904917E-001	0.000000000000000E+000
-6.3978606E-001	0.000000000000000E+000
-6.3714767E-001	0.000000000000000E+000
-6.3682312E-001	0.000000000000000E+000
-6.4114922E-001	0.000000000000000E+000
-6.4193195E-001	0.000000000000000E+000
-6.4011830E-001	0.000000000000000E+000
-6.3861006E-001	0.000000000000000E+000
-6.3830459E-001	0.000000000000000E+000
-6.3760203E-001	0.000000000000000E+000
-6.3896137E-001	0.000000000000000E+000
-6.3903391E-001	0.000000000000000E+000
-6.3995790E-001	0.000000000000000E+000
-6.3862538E-001	0.000000000000000E+000
-6.3823211E-001	0.000000000000000E+000
-6.3847262E-001	0.000000000000000E+000
-6.3910264E-001	0.000000000000000E+000
-6.3760203E-001	0.000000000000000E+000
-6.3912553E-001	0.000000000000000E+000
-6.4006102E-001	0.000000000000000E+000
-6.3995796E-001	0.000000000000000E+000
-6.3733858E-001	0.000000000000000E+000
-6.3848031E-001	0.000000000000000E+000
-6.3948828E-001	0.000000000000000E+000
-6.3679641E-001	0.000000000000000E+000
-6.3927442E-001	0.000000000000000E+000
-6.3909119E-001	0.000000000000000E+000
-6.4024431E-001	0.000000000000000E+000
-6.3863301E-001	0.000000000000000E+000
-6.3932413E-001	0.000000000000000E+000
-6.3518125E-001	0.000000000000000E+000
-6.3765162E-001	0.000000000000000E+000
-6.3966012E-001	0.000000000000000E+000
-6.3972503E-001	0.000000000000000E+000
-6.4200073E-001	0.000000000000000E+000
-6.3988537E-001	0.000000000000000E+000
-6.3922477E-001	0.000000000000000E+000
-6.3833135E-001	0.000000000000000E+000
-6.4178312E-001	0.000000000000000E+000
-6.3865209E-001	0.000000000000000E+000
-6.3689566E-001	0.000000000000000E+000
-6.3957989E-001	0.000000000000000E+000
-6.4359295E-001	0.000000000000000E+000
-6.4349747E-001	0.000000000000000E+000
-7.8894389E-001	-9.903046528498334E-001
-7.8918046E-001	-9.858841965043976E-001
-7.8807032E-001	-9.776926842276730E-001
-7.8675073E-001	-9.699968602970648E-001
-7.8550792E-001	-9.625874411452706E-001
-7.8488821E-001	-9.552335968172052E-001
-7.8402489E-001	-9.478688664576342E-001
-7.8341734E-001	-9.408551578720425E-001
-7.8244770E-001	-9.338286176875812E-001
-7.8146732E-001	-9.266867816483355E-001
-7.8027743E-001	-9.198536319589161E-001
-7.7915156E-001	-9.129146965289567E-001
-7.7781206E-001	-9.057866679429534E-001
-7.7732205E-001	-8.988202414302897E-001
-7.7596837E-001	-8.919728596320979E-001
-7.7499795E-001	-8.851832213501147E-001
-7.7403021E-001	-8.783642791763526E-001
-7.7340508E-001	-8.703073626885889E-001
-7.7209073E-001	-8.632136928262497E-001
-7.7135700E-001	-8.564702609071002E-001
-7.7024323E-001	-8.498039997314262E-001
-7.6943707E-001	-8.433592087692681E-001
-7.6785880E-001	-8.368620985636017E-001
-7.6770473E-001	-8.302203630696958E-001
-7.6612103E-001	-8.234869801887743E-001
-7.6543075E-001	-8.165142901793647E-001
-7.6376456E-001	-8.095750818973838E-001
-7.6301551E-001	-8.027349956057677E-001
-7.6162344E-001	-7.963816313209691E-001
-7.6123637E-001	-7.898175396301106E-001
-7.5990951E-001	-7.834013998508489E-001
-7.5852102E-001	-7.766454851203179E-001
-7.5841194E-001	-7.701409721954011E-001
-7.5736600E-001	-7.636213105309935E-001
-7.5587577E-001	-7.573313805189335E-001
-7.5476944E-001	-7.506613806579976E-001
-7.5400180E-001	-7.443879825511450E-001
-7.5314099E-001	-7.380959120830095E-001
-7.5241709E-001	-7.315273815421026E-001
-7.5111985E-001	-7.249837673754165E-001
-7.5100642E-001	-7.186609676314735E-001
-7.4924314E-001	-7.122150317386335E-001
-7.4802554E-001	-7.055573050621859E-001
-7.4714732E-001	-6.990724101110750E-001
-7.4572694E-001	-6.926312994349884E-001
-7.4521643E-001	-6.860223871999862E-001
-7.4387246E-001	-6.795914154499763E-001
-7.4332654E-001	-6.731427117354336E-001
-7.4230164E-001	-6.665330933259224E-001
-7.4162889E-001	-6.599023869192151E-001
-7.3987478E-001	-6.532838795748006E-001
-7.3951238E-001	-6.463925123376661E-001
-7.3841512E-001	-6.399613618160828E-001
-7.3705596E-001	-6.335214491881755E-001
-7.3659950E-001	-6.272072710648740E-001
-7.3564339E-001	-6.208669681240018E-001
-7.3458654E-001	-6.137601064132063E-001
-7.3287815E-001	-6.074512100744052E-001
-7.3247129E-001	-6.010239578921475E-001
-7.3094231E-001	-5.942400624514805E-001
-7.3044002E-001	-5.877474409148666E-001
-7.2922748E-001	-5.810363834240926E-001
-7.2829908E-001	-5.744563316493037E-001
-7.2719377E-001	-5.674766768459909E-001
-7.2597635E-001	-5.608925717296422E-001
-7.2510177E-001	-5.548219723258052E-001
-7.2434574E-001	-5.480520909445161E-001
-7.2350109E-001	-5.415490668763958E-001
-7.2182190E-001	-5.349511397243676E-001
-7.2118884E-001	-5.286088641732931E-001
-7.1995479E-001	-5.222157203457058E-001
-7.1905196E-001	-5.160213879964992E-001
-7.1808165E-001	-5.094312461851926E-001
-7.1726817E-001	-5.030512602574806E-001
-7.1582842E-001	-4.967500170071943E-001
-7.1569645E-001	-4.906301953726349E-001
-7.1385610E-001	-4.840344207591069E-001
-7.1277457E-001	-4.778911955654639E-001
-7.1221846E-001	-4.718237973645385E-001
-7.1151435E-001	-4.653876629416587E-001
-7.1010441E-001	-4.591301523011060E-001
-7.0947802E-001	-4.524977932640866E-001
-7.0755291E-001	-4.461769814844474E-001
-7.0743221E-001	-4.395756328961351E-001
-7.0581591E-001	-4.334694941910122E-001
-7.0472997E-001	-4.268555850204478E-001
-7.0398325E-001	-4.208715132403151E-001
-7.0361030E-001	-4.144514066071778E-001
-7.0196462E-001	-4.081808822574446E-001
-7.0145822E-001	-4.017457362540333E-001
-7.0016545E-001	-3.954289737704926E-001
-6.9894856E-001	-3.891266369502313E-001
-6.9835949E-001	-3.830065989063569E-001
-6.9738787E-001	-3.767651426433414E-001
-6.9575500E-001	-3.705617588841257E-001
-6.9563454E-001	-3.641802242446524E-001
-6.9452912E-001	-3.580681570219237E-001
-6.9336981E-001	-3.516833365515453E-001
-6.9213957E-001	-3.453442174008208E-001
-6.9159579E-001	-3.389324039841704E-001
-6.9045436E-001	-3.325643831243117E-001
-6.8881679E-001	-3.263727074447456E-001
-6.8876559E-001	-3.197609855344994E-001
-6.8696314E-001	-3.135541360757370E-001
-6.8542564E-001	-3.076340041157835E-001
-6.8512887E-001	-3.012486018792329E-001
-6.8395913E-001	-2.951141029080127E-001
-6.8282747E-001	-2.888519418322382E-001
-6.8190289E-001	-2.827024715780113E-001
-6.8166566E-001	-2.760072663029109E-001
-6.7955250E-001	-2.700063062279869E-001
-6.7907733E-001	-2.637697847698028E-001
-6.7835373E-001	-2.576792832394944E-001
-6.7725044E-001	-2.513974090279261E-001
-6.7588741E-001	-2.451527499490309E-001
-6.7510104E-001	-2.388901723167849E-001
-6.7370749E-001	-2.324684422670134E-001
-6.7301399E-001	-2.262963271298810E-001
-6.7175233E-001	-2.200149678176757E-001
-6.7100561E-001	-2.139031258239235E-001
-6.7047727E-001	-2.074748359940779E-001
-6.6940826E-001	-2.013188882351470E-001
-6.6807616E-001	-1.950310982625783E-001
-6.6716897E-001	-1.887737150106190E-001
-6.6628116E-001	-1.825550992938663E-001
-6.6497743E-001	-1.761484351526530E-001
-6.6402060E-001	-1.698967512995905E-001
-6.6318625E-001	-1.638115930060546E-001
-6.6227794E-001	-1.576575630482428E-001
-6.6026902E-001	-1.513047643731711E-001
-6.6002637E-001	-1.451414624677487E-001
-6.5915018E-001	-1.389023814185206E-001
-6.5835822E-001	-1.327815495638378E-001
-6.5689701E-001	-1.266330017846218E-001
-6.5619993E-001	-1.202607920354206E-001
-6.5500408E-001	-1.141844808848365E-001
-6.5358555E-001	-1.076068589463828E-001
-6.5323859E-001	-1.015676162357746E-001
-6.5181959E-001	-9.538214219975494E-002
-6.5112251E-001	-8.894116088265092E-002
-6.5029252E-001	-8.290126126832570E-002
-6.4958680E-001	-7.666908268368355E-002
-6.4824903E-001	-7.069206230894305E-002
-6.4681953E-001	-6.428521349403749E-002
-6.4622772E-001	-5.813801536095098E-002
-6.4500964E-001	-5.177203980432477E-002
-6.4416414E-001	-4.555997996660004E-002
-6.4324522E-001	-3.869132153340604E-002
-6.4179575E-001	-3.158163156186544E-002
-6.4067739E-001	-2.547414914308188E-002
-6.3945609E-001	-1.911875469118562E-002
-6.3898629E-001	-1.279850468860977E-002
-6.3824916E-001	-6.515386831812992E-003
-6.3640618E-001	-4.131705351604360E-004
-6.3607079E-001	5.795697921442924E-003
-6.3507420E-001	1.221254209155666E-002
-6.3408351E-001	1.824383210760974E-002
-6.3285118E-001	2.446580204586674E-002
-6.3173348E-001	3.074665496522494E-002
-6.3117188E-001	3.699844580808553E-002
-6.2950891E-001	4.333732900192466E-002
-6.2910205E-001	4.950796927894552E-002
-6.2837285E-001	5.576316673296852E-002
-6.2757504E-001	6.182551400356531E-002
-6.2576514E-001	6.817975680183513E-002
-6.2502742E-001	7.438400944832857E-002
-6.2460369E-001	8.047188086331744E-002
-6.2265438E-001	8.681247975962347E-002
-6.2184787E-001	9.297491309095030E-002
-6.2078661E-001	9.914191687238172E-002
-6.1933064E-001	1.052306261450982E-001
-6.1867738E-001	1.122724921323164E-001
-6.1730540E-001	1.194168576556776E-001
-6.1673290E-001	1.256987925666884E-001
-6.1579806E-001	1.318063131464573E-001
-6.1450166E-001	1.381035267781328E-001
-6.1310297E-001	1.441606015691326E-001
-6.1195451E-001	1.504257166999631E-001
-6.1141670E-001	1.566067674870899E-001
-6.1058420E-001	1.626549647362143E-001
-6.0942590E-001	1.688327529916056E-001
-6.0855204E-001	1.749439636220540E-001
-6.0717058E-001	1.810055677779014E-001
-6.0691631E-001	1.872482947936200E-001
-6.0532564E-001	1.934927657471088E-001
-6.0448277E-001	1.995542067689484E-001
-6.0396981E-001	2.056673634403230E-001
-6.0250103E-001	2.120241744926670E-001
-6.0132098E-001	2.182971661979396E-001
-6.0050195E-001	2.242629498992519E-001
-5.9923428E-001	2.304774338586464E-001
-5.9878224E-001	2.365204289693525E-001
-5.9740746E-001	2.428001340407473E-001
-5.9651679E-001	2.490001394654868E-001
-5.9575260E-001	2.551308313246685E-001
-5.9480786E-001	2.613342405816303E-001
-5.9406620E-001	2.675215662629520E-001
-5.9241933E-001	2.734531456328652E-001
-5.9142399E-001	2.795181318655646E-001
-5.9012932E-001	2.853757791842035E-001
-5.8956850E-001	2.917865019919681E-001
-5.8876896E-001	2.978315106420610E-001
-5.8766532E-001	3.038737522093240E-001
-5.8651340E-001	3.101939481962139E-001
-5.8558238E-001	3.162696753042162E-001
-5.8553678E-001	3.223224523028847E-001
-5.8312899E-001	3.286891889180842E-001
-5.8261681E-001	3.348236319574505E-001
-5.8171570E-001	3.407335890526024E-001
-5.8048230E-001	3.470092152541853E-001
-5.7969779E-001	3.532135389676281E-001
-5.7833976E-001	3.596246112122996E-001
-5.7742101E-001	3.656920878630547E-001
-5.7713020E-001	3.718361158820755E-001
-5.7550472E-001	3.780620869187565E-001
-5.7467246E-001	3.842051412772243E-001
-5.7392603E-001	3.902557020041133E-001
-5.7286817E-001	3.962278118370479E-001
-5.7156247E-001	4.023459008032528E-001
-5.7027531E-001	4.084245399054538E-001
-5.6926388E-001	4.149417481437023E-001
-5.6849366E-001	4.207962099462739E-001
-5.6742984E-001	4.270932798584308E-001
-5.6657380E-001	4.328970966629737E-001
-5.6569743E-001	4.394148412953935E-001
-5.6484222E-001	4.453836526703796E-001
-5.6338173E-001	4.514424845714267E-001
-5.6235069E-001	4.575620312243707E-001
-5.6159341E-001	4.637064994823135E-001
-5.6002760E-001	4.696542776569164E-001
-5.5934352E-001	4.761485256668596E-001
-5.5854827E-001	4.821827719912452E-001
-5.5764312E-001	4.880242846492262E-001
-5.5604196E-001	4.944034723082069E-001
-5.5525404E-001	5.002928582608082E-001
-5.5459082E-001	5.065952108965988E-001
-5.5313987E-001	5.124789679216022E-001
-5.5248117E-001	5.183732496775496E-001
-5.5120867E-001	5.249362672092754E-001
-5.5009496E-001	5.310166415147792E-001
-5.4957974E-001	5.367534116462438E-001
-5.4855424E-001	5.428119125189603E-001
-5.4764992E-001	5.491166570232613E-001
-5.4631299E-001	5.551956718856541E-001
-5.4564112E-001	5.611048824395279E-001
-5.4481149E-001	5.675515091632111E-001
-5.4377693E-001	5.737865536853133E-001
-5.4179591E-001	5.799374997753777E-001
-5.4141682E-001	5.860469963125376E-001
-5.4070812E-001	5.922808757534757E-001
-5.3918290E-001	5.977396338626193E-001
-5.3786796E-001	6.037812804362346E-001
-5.3724283E-001	6.092330247025808E-001
-5.3610587E-001	6.157091314101182E-001
-5.3530467E-001	6.220754349121354E-001
-5.3474861E-001	6.284321615541431E-001
-5.3328055E-001	6.342924684061266E-001
-5.3196830E-001	6.402585040777948E-001
-5.3130811E-001	6.456648640472600E-001
-5.3063077E-001	6.523936304475191E-001
-5.2988958E-001	6.579835007864006E-001
-5.2813554E-001	6.643330961189893E-001
-5.2783740E-001	6.703776273834237E-001
-5.2646804E-001	6.767543482559701E-001
-5.2504653E-001	6.827202238323302E-001
-5.2403009E-001	6.889930332976353E-001
-5.2367705E-001	6.949976497778216E-001
-5.2241099E-001	7.010535251091046E-001
-5.2164060E-001	7.072227377858447E-001
-5.2049834E-001	7.133213367865041E-001
-5.1909322E-001	7.190158223219703E-001
-5.1878077E-001	7.252252219865731E-001
-5.1811892E-001	7.312554999220104E-001
-5.1654530E-001	7.374729832263327E-001
-5.1566333E-001	7.439740380203306E-001
-5.1470405E-001	7.499006374014763E-001
-5.1345712E-001	7.553921129506520E-001
-5.1271492E-001	7.615208843791912E-001
-5.1149148E-001	7.675167696908751E-001
-5.1009637E-001	7.734853959193924E-001
-5.0924897E-001	7.795143628975838E-001
-5.0844038E-001	7.855525046998497E-001
-5.0771087E-001	7.913959801748973E-001
-5.0662833E-001	7.975408027845408E-001
-5.0542384E-001	8.038013198792555E-001
-5.0448185E-001	8.099917217537218E-001
-5.0361913E-001	8.159188310857175E-001
-5.0246578E-001	8.219220969775609E-001
-5.0176555E-001	8.282391046760260E-001
-5.0070435E-001	8.342376942868558E-001
-4.9901566E-001	8.398493569758214E-001
-4.9908450E-001	8.458854567121591E-001
-4.9689052E-001	8.518596051454956E-001
-4.9655437E-001	8.580774445500658E-001
-4.9536207E-001	8.638694478129878E-001
-4.9463376E-001	8.697299112973624E-001
-4.9363664E-001	8.757508187382310E-001
-4.9265042E-001	8.821976533918487E-001
-4.9205524E-001	8.884446295784798E-001
-4.9070096E-001	8.942867761684798E-001
-4.9012229E-001	9.002160080880994E-001
-4.8903191E-001	9.062701978042158E-001
-4.8737696E-001	9.124951702025221E-001
-4.8644236E-001	9.182818368943533E-001
-4.8596910E-001	9.242607604850228E-001
-4.8486835E-001	9.302063265608425E-001
-4.8357806E-001	9.357392903081774E-001
-4.8256484E-001	9.419921993933329E-001
-4.8199868E-001	9.485729716166311E-001
-4.7992051E-001	9.547621034181228E-001
-4.7957486E-001	9.603009966236584E-001
-4.7849813E-001	9.665824810939818E-001
-4.7776464E-001	9.725236453651984E-001
-4.7678521E-001	9.779042495345607E-001
-4.7576022E-001	9.837804697453976E-001
-4.7423458E-001	9.893581377771259E-001
-4.7354349E-001	9.955293145720567E-001
-4.7208440E-001	1.001878506919231E+000
-4.7213542E-001	1.008333074411858E+000
-4.7059870E-001	1.013700359949362E+000
-4.6949223E-001	1.020135008339530E+000
-4.6856695E-001	1.026990282866690E+000
-4.6761516E-001	1.032637836618556E+000
-4.6720773E-001	1.038332122142647E+000
-4.6551675E-001	1.044084098190069E+000
-4.6473196E-001	1.049916181437393E+000
-4.6339083E-001	1.056551809251235E+000
-4.6265534E-001	1.062336929280453E+000
-4.6149957E-001	1.068266176684377E+000
-4.5974395E-001	1.074135657123944E+000
-4.5950806E-001	1.080354921933681E+000
-4.5890522E-001	1.085738457154001E+000
-4.5708731E-001	1.092151993126784E+000
-4.5658338E-001	1.098242584460724E+000
-4.5527858E-001	1.105933896655906E+000
-4.5432493E-001	1.111160019757573E+000
-4.5379293E-001	1.117939678331215E+000
-4.5204118E-001	1.124112250178381E+000
-4.5140013E-001	1.129431213907619E+000
-4.5014209E-001	1.135622854656976E+000
-4.4882551E-001	1.141705185036972E+000
-4.4826704E-001	1.147584351538505E+000
-4.4760638E-001	1.153398050244996E+000
-4.4616228E-001	1.159684994706399E+000
-4.4520009E-001	1.166143630113867E+000
-4.4444168E-001	1.171482049486428E+000
-4.4308680E-001	1.178335628023856E+000
-4.4217578E-001	1.184467871707895E+000
-4.4133061E-001	1.189836119968223E+000
-4.4011855E-001	1.196911314157417E+000
-4.3909448E-001	1.202316074304477E+000
-4.3827662E-001	1.208243096040349E+000
-4.3718231E-001	1.214130636994486E+000
-4.3630001E-001	1.219791077463849E+000
-4.3536395E-001	1.225638360199001E+000
-4.3405679E-001	1.231516950798254E+000
-4.3306771E-001	1.237087248381230E+000
-4.3245438E-001	1.243878825947087E+000
-4.3107530E-001	1.249426150487535E+000
-4.3030927E-001	1.255553875797030E+000
-4.2944157E-001	1.261069178305291E+000
-4.2836627E-001	1.267546025967160E+000
-4.2710835E-001	1.273180211121861E+000
-4.2611286E-001	1.278802553536714E+000
-4.2523599E-001	1.284979324440952E+000
-4.2435580E-001	1.290547521439965E+000
-4.2344430E-001	1.295852989372273E+000
-4.2228216E-001	1.302386138189824E+000
-4.2150140E-001	1.308037508693011E+000
-4.2035782E-001	1.313273999977996E+000
-4.1948259E-001	1.319924320074108E+000
-4.1869217E-001	1.325032239434897E+000
-4.1731659E-001	1.330726380425465E+000
-4.1626513E-001	1.336595027082392E+000
-4.1542479E-001	1.343548853502227E+000
-4.1421372E-001	1.348196236448505E+000
-4.1341004E-001	1.355000705354744E+000
-4.1234535E-001	1.360863832825867E+000
-4.1133437E-001	1.366450104263517E+000
-4.1017079E-001	1.372056010558653E+000
-4.0942094E-001	1.378017272800207E+000
-4.0834269E-001	1.383893713385846E+000
-4.0732467E-001	1.389230458134854E+000
-4.0637270E-001	1.395792168461615E+000
-4.0543231E-001	1.402573198743092E+000
-4.0404436E-001	1.407465480819898E+000
-4.0303299E-001	1.411830782338428E+000
-4.0224442E-001	1.416773409504845E+000
-4.0124133E-001	1.422179539998375E+000
-4.0028566E-001	1.427995356809543E+000
-3.9938265E-001	1.433242151444702E+000
-3.9829889E-001	1.439853072166440E+000
-3.9750630E-001	1.445214709178583E+000
-3.9621434E-001	1.450418852683571E+000
-3.9512125E-001	1.456426911883881E+000
-3.9459699E-001	1.462157577447940E+000
-3.9316013E-001	1.468632047650988E+000
-3.9243400E-001	1.473473166563997E+000
-3.9131257E-001	1.479677984083779E+000
-3.9033371E-001	1.485267561067026E+000
-3.8931423E-001	1.491320491251014E+000
-3.8845894E-001	1.496051501728680E+000
-3.8718304E-001	1.501068989297856E+000
-3.8600925E-001	1.507461611968260E+000
-3.8527828E-001	1.512821554999662E+000
-3.8463557E-001	1.519515983484411E+000
-3.8355500E-001	1.524725530623508E+000
-3.8237768E-001	1.531293428330507E+000
-3.8138953E-001	1.536711023361590E+000
-3.8033009E-001	1.542530832883671E+000
-3.7934145E-001	1.548485301021074E+000
-3.7820917E-001	1.554012154401450E+000
-3.7739998E-001	1.559601600664294E+000
-3.7622681E-001	1.564674753557755E+000
-3.7518990E-001	1.570679128997860E+000
-3.7441316E-001	1.577716929997031E+000
-3.7332496E-001	1.583174772836543E+000
-3.7227353E-001	1.588456410099038E+000
-3.7085599E-001	1.594659208699510E+000
-3.7033498E-001	1.599789593782692E+000
-3.6932430E-001	1.605705923404820E+000
-3.6844558E-001	1.610261903040939E+000
-3.6738029E-001	1.616796462348212E+000
-3.6619264E-001	1.623553223097744E+000
-3.6519682E-001	1.628113965469378E+000
-3.6455712E-001	1.633701012642298E+000
-3.6352751E-001	1.639089816244703E+000
-3.6233738E-001	1.644730614291312E+000
-3.6130312E-001	1.650179214524499E+000
-3.6021078E-001	1.656078313787777E+000
-3.5951054E-001	1.661786007660410E+000
-3.5846591E-001	1.666744938428133E+000
-3.5733244E-001	1.672955931888687E+000
-3.5634413E-001	1.678788555717031E+000
-3.5527262E-001	1.683683681837376E+000
-3.5443965E-001	1.690094432621095E+000
-3.5341462E-001	1.694737514411962E+000
-3.5220310E-001	1.700600585630330E+000
-3.5124075E-001	1.706707022808216E+000
-3.5030401E-001	1.712480369541382E+000
-3.4961212E-001	1.718416410646970E+000
-3.4851921E-001	1.724419381331522E+000
-3.4730315E-001	1.729097851453557E+000
-3.4643224E-001	1.735323205590242E+000
-3.4521845E-001	1.740664702322748E+000
-3.4425956E-001	1.746738022363637E+000
-3.4348133E-001	1.752536162182132E+000
-3.4248227E-001	1.757030566809355E+000
-3.4113714E-001	1.763821788628324E+000
-3.4040487E-001	1.769838762780026E+000
-3.3924919E-001	1.775348831933961E+000
-3.3825105E-001	1.780779504738689E+000
-3.3749172E-001	1.786606024536823E+000
-3.3637866E-001	1.793058819792890E+000
-3.3553591E-001	1.798069753100712E+000
-3.3435094E-001	1.803132043116625E+000
-3.3362919E-001	1.809551022486302E+000
-3.3227339E-001	1.816623158476979E+000
-3.3132306E-001	1.821468539811942E+000
-3.2993829E-001	1.827223169344194E+000
-3.2938826E-001	1.831964438436216E+000
-3.2854420E-001	1.837000468262920E+000
-3.2735085E-001	1.841804733456180E+000
-3.2648146E-001	1.848976117869219E+000
-3.2537436E-001	1.854106364426784E+000
-3.2436866E-001	1.858642819644202E+000
-3.2325056E-001	1.864781897653032E+000
-3.2246476E-001	1.870572031732785E+000
-3.2120118E-001	1.876579850360198E+000
-3.2040361E-001	1.880548308017083E+000
-3.1947032E-001	1.886326304076234E+000
-3.1801310E-001	1.892530243153921E+000
-3.1731480E-001	1.898472477992378E+000
-3.1619996E-001	1.903472704236982E+000
-3.1538484E-001	1.909205297353093E+000
-3.1419504E-001	1.914346605263372E+000
-3.1333572E-001	1.919338660540916E+000
-3.1245771E-001	1.925177241365118E+000
-3.1144905E-001	1.930839717664099E+000
-3.1029421E-001	1.936948530771884E+000
-3.0934921E-001	1.942573497140842E+000
-3.0830219E-001	1.947882778990445E+000
-3.0739149E-001	1.953011675013421E+000
-3.0641994E-001	1.959310512023942E+000
-3.0534276E-001	1.964667756931576E+000
-3.0430844E-001	1.969943498295761E+000
-3.0356598E-001	1.975682333387716E+000
-3.0215105E-001	1.981134440406345E+000
-3.0146208E-001	1.985656242127774E+000
-3.0037856E-001	1.991797782756661E+000
-2.9953071E-001	1.997892852898941E+000
-2.9829612E-001	2.003094923441066E+000
-2.9726428E-001	2.007961702198745E+000
-2.9615554E-001	2.013415556263045E+000
-2.9529959E-001	2.018322029047546E+000
-2.9452214E-001	2.024017539620498E+000
-2.9318467E-001	2.029270945047902E+000
-2.9232788E-001	2.035744908783172E+000
-2.9137081E-001	2.040488249045989E+000
-2.9029107E-001	2.045608764721282E+000
-2.8937912E-001	2.051340404208048E+000
-2.8867841E-001	2.056784454973979E+000
-2.8744075E-001	2.063011115071944E+000
-2.8641209E-001	2.067305355436272E+000
-2.8505754E-001	2.072460358266017E+000
-2.8433579E-001	2.077562288277676E+000
-2.8357270E-001	2.083670904069240E+000
-2.8215978E-001	2.089356623589993E+000
-2.8095850E-001	2.094964667602810E+000
-2.8037623E-001	2.101777103652555E+000
-2.7947021E-001	2.105638956030212E+000
-2.7821314E-001	2.110130998271481E+000
-2.7738568E-001	2.115394773968596E+000
-2.7634326E-001	2.120548407236733E+000
-2.7522722E-001	2.125798283075842E+000
-2.7416095E-001	2.131446812380641E+000
-2.7347296E-001	2.137920201652570E+000
-2.7253366E-001	2.142927636702854E+000
-2.7133176E-001	2.147498661901164E+000
-2.7038249E-001	2.154929223159954E+000
-2.6922652E-001	2.160859394975226E+000
-2.6845086E-001	2.165925316788531E+000
-2.6723239E-001	2.170401573457114E+000
-2.6643968E-001	2.175531946131535E+000
-2.6527297E-001	2.181089146545640E+000
-2.6454005E-001	2.186597508136870E+000
-2.6334819E-001	2.191875046956540E+000
-2.6254669E-001	2.197062719751292E+000
-2.6139569E-001	2.202306249627354E+000
-2.6042846E-001	2.208261328434354E+000
-2.5946215E-001	2.213773680505941E+000
-2.5858667E-001	2.218420943040446E+000
-2.5728872E-001	2.223145673672363E+000
-2.5641131E-001	2.228684972557758E+000
-2.5527635E-001	2.234532344877461E+000
-2.5444281E-001	2.239268080503852E+000
-2.5343814E-001	2.244435588242826E+000
-2.5222078E-001	2.250336222708206E+000
-2.5127617E-001	2.255563928297274E+000
-2.5029528E-001	2.261024439776385E+000
-2.4912512E-001	2.266096640740283E+000
-2.4837235E-001	2.271058070162938E+000
-2.4743916E-001	2.278116640393378E+000
-2.4641946E-001	2.283729521363679E+000
-2.4526572E-001	2.289727892036787E+000
-2.4435298E-001	2.294994542382369E+000
-2.4319813E-001	2.298966400601247E+000
-2.4238548E-001	2.303947697911002E+000
-2.4132857E-001	2.309317593191219E+000
-2.4049646E-001	2.315038197294426E+000
-2.3935713E-001	2.319191857068624E+000
-2.3832212E-001	2.324116468682078E+000
-2.3718366E-001	2.331222270925844E+000
-2.3621193E-001	2.335647314510961E+000
-2.3541138E-001	2.341420630918915E+000
-2.3467548E-001	2.347704089902059E+000
-2.3356692E-001	2.352248826236639E+000
-2.3242503E-001	2.356658012646687E+000
-2.3139769E-001	2.362037900973256E+000
-2.3054348E-001	2.367020557621828E+000
-2.2917035E-001	2.372096038526955E+000
-2.2801381E-001	2.376681755538339E+000
-2.2749954E-001	2.381240398461770E+000
-2.2662036E-001	2.387802374031810E+000
-2.2538325E-001	2.393415186140270E+000
-2.2434226E-001	2.398615404194892E+000
-2.2307040E-001	2.404680295398943E+000
-2.2243021E-001	2.409394505951138E+000
-2.2139198E-001	2.414036831846801E+000
-2.2047143E-001	2.418289972676178E+000
-2.1941766E-001	2.423123398005895E+000
-2.1854469E-001	2.428863586926902E+000
-2.1726681E-001	2.433789553189726E+000
-2.1645357E-001	2.437930838856984E+000
-2.1529572E-001	2.442218778310001E+000
-2.1428557E-001	2.448514431715015E+000
-2.1353821E-001	2.454083635861981E+000
-2.1239063E-001	2.458114116280171E+000
-2.1133322E-001	2.463882512792395E+000
-2.1049125E-001	2.469207318349799E+000
-2.0918880E-001	2.473234376697622E+000
-2.0820728E-001	2.477542716319917E+000
-2.0734745E-001	2.482739864229202E+000
-2.0649095E-001	2.487464978739062E+000
-2.0560662E-001	2.493448894598522E+000
-2.0453621E-001	2.498758385578810E+000
-2.0337482E-001	2.504601306937353E+000
-2.0220038E-001	2.509492479556450E+000
-2.0140627E-001	2.514396400363353E+000
-2.0036556E-001	2.518837941465551E+000
-1.9951305E-001	2.524043815049987E+000
-1.9850901E-001	2.529442334892579E+000
-1.9757079E-001	2.535216025180283E+000
-1.9645648E-001	2.540217340274864E+000
-1.9537485E-001	2.545378765574213E+000
-1.9464277E-001	2.549508516711217E+000
-1.9349179E-001	2.554975814997384E+000
-1.9229156E-001	2.559574284211337E+000
-1.9147047E-001	2.565132321526477E+000
-1.9021018E-001	2.569881154707176E+000
-1.8954517E-001	2.574101934554401E+000
-1.8856844E-001	2.579081077818730E+000
-1.8741581E-001	2.583276566531925E+000
-1.8643029E-001	2.588488155217082E+000
-1.8534368E-001	2.593183958511865E+000
-1.8459769E-001	2.597559847765496E+000
-1.8342209E-001	2.602896283070237E+000
-1.8231568E-001	2.608645957908546E+000
-1.8135959E-001	2.613829847287252E+000
-1.8032351E-001	2.618081574583366E+000
-1.7961994E-001	2.623110688946859E+000
-1.7851879E-001	2.627910083918657E+000
-1.7723949E-001	2.634094059903084E+000
-1.7626682E-001	2.638469451279548E+000
-1.7529359E-001	2.642248347125665E+000
-1.7466015E-001	2.647624289150933E+000
-1.7351681E-001	2.652086296567209E+000
-1.7220393E-001	2.657539592296985E+000
-1.7127505E-001	2.662209569190992E+000
-1.7028292E-001	2.666714183158350E+000
-1.6964166E-001	2.670751554822481E+000
-1.6858786E-001	2.678230126340480E+000
-1.6725077E-001	2.683958542567710E+000
-1.6645364E-001	2.688427023456615E+000
-1.6552258E-001	2.692619264125831E+000
-1.6438325E-001	2.696837921661363E+000
-1.6327031E-001	2.702635122343651E+000
-1.6226132E-001	2.707746047940521E+000
-1.6145821E-001	2.711656622588638E+000
-1.6032217E-001	2.717623512600447E+000
-1.5920903E-001	2.721641494720071E+000
-1.5839510E-001	2.728567375077144E+000
-1.5765467E-001	2.733807586104856E+000
-1.5628697E-001	2.739030362003386E+000
-1.5525794E-001	2.742342903106302E+000
-1.5428385E-001	2.748623684492571E+000
-1.5363348E-001	2.753619256394877E+000
-1.5262707E-001	2.759364069540322E+000
-1.5146384E-001	2.764092972157176E+000
-1.5031730E-001	2.768085723673861E+000
-1.4935647E-001	2.772184068340870E+000
-1.4824733E-001	2.777428339200995E+000
-1.4726986E-001	2.782384060323231E+000
-1.4667772E-001	2.786118877089493E+000
-1.4529940E-001	2.790751634924490E+000
-1.4456141E-001	2.795295962029035E+000
-1.4331234E-001	2.801318434423925E+000
-1.4222187E-001	2.806093073001612E+000
-1.4147171E-001	2.810033244544464E+000
-1.4044169E-001	2.814999477454897E+000
-1.3936515E-001	2.818808296764336E+000
-1.3843562E-001	2.823360065066510E+000
-1.3747509E-001	2.828827965866623E+000
-1.3625301E-001	2.835455103052979E+000
-1.3547827E-001	2.838779121490155E+000
-1.3442257E-001	2.841895998628054E+000
-1.3345824E-001	2.849274251472075E+000
-1.3242766E-001	2.854794049192497E+000
-1.3137111E-001	2.858361121405082E+000
-1.3043098E-001	2.864171979603938E+000
-1.2913758E-001	2.868781964958629E+000
-1.2836486E-001	2.871821256147484E+000
-1.2706964E-001	2.877408687637953E+000
-1.2628663E-001	2.880638549173320E+000
-1.2543622E-001	2.886959251154359E+000
-1.2429850E-001	2.890717878222503E+000
-1.2346937E-001	2.896365233041628E+000
-1.2246219E-001	2.900346691685684E+000
-1.2133293E-001	2.903670878881954E+000
-1.2029319E-001	2.907909915954974E+000
-1.1931294E-001	2.913059651299754E+000
-1.1857735E-001	2.919177642312455E+000
-1.1726677E-001	2.922590134596362E+000
-1.1615543E-001	2.927385850637052E+000
-1.1536610E-001	2.932701245334215E+000
-1.1454433E-001	2.937302427159423E+000
-1.1337049E-001	2.941948332540107E+000
-1.1234201E-001	2.946295824867704E+000
-1.1127479E-001	2.953160433857526E+000
-1.1046296E-001	2.956721633344685E+000
-1.0951181E-001	2.960451202536063E+000
-1.0835720E-001	2.965758007157746E+000
-1.0731477E-001	2.970124252810773E+000
-1.0620093E-001	2.975027030264886E+000
-1.0572046E-001	2.980461113982726E+000
-1.0446322E-001	2.985396135378492E+000
-1.0337793E-001	2.989445886402216E+000
-1.0230225E-001	2.994787841385971E+000
-1.0144546E-001	2.999592035180992E+000
-1.0035491E-001	3.004521929279505E+000
-9.9620201E-002	3.009974092139302E+000
-9.8416910E-002	3.012542881899407E+000
-9.7300909E-002	3.017709289160042E+000
-9.6456982E-002	3.022328259760727E+000
-9.5556371E-002	3.026641283874170E+000
-9.4460309E-002	3.030715097155834E+000
-9.3314461E-002	3.034909743001728E+000
-9.2324190E-002	3.039959685669999E+000
-9.1355190E-002	3.044190960625784E+000
-9.0486698E-002	3.047391527413268E+000
-8.9380495E-002	3.051975498044933E+000
-8.8449657E-002	3.055708533795105E+000
-8.7438472E-002	3.063446775906620E+000
-8.6382277E-002	3.067223965017874E+000
-8.5797876E-002	3.070158326005078E+000
-8.4486082E-002	3.074120431862497E+000
-8.3313227E-002	3.078173820895177E+000
-8.2420334E-002	3.082686350530182E+000
-8.1476837E-002	3.087546693230109E+000
-8.0333479E-002	3.091865670073915E+000
-7.9482794E-002	3.095496238167790E+000
-7.8298323E-002	3.100597274524205E+000
-7.7373013E-002	3.104395773951666E+000
-7.6481454E-002	3.108724516299034E+000
-7.5472787E-002	3.112771662021125E+000
-7.4495509E-002	3.117411737358367E+000
-7.3200263E-002	3.121796760294167E+000
-7.2566003E-002	3.127325938807580E+000
-7.1447782E-002	3.130592120549031E+000
-7.0300698E-002	3.134520183006906E+000
-6.9655403E-002	3.138907194137573E+000
-6.8642676E-002	3.143205799678697E+000
-6.7578256E-002	3.147582410662260E+000
-6.6305488E-002	3.151351170959288E+000
-6.5325819E-002	3.156642947694557E+000
-6.4335465E-002	3.160727824325903E+000
-6.3490435E-002	3.164768930764717E+000
-6.2300518E-002	3.169236549072792E+000
-6.1429523E-002	3.173170783453516E+000
-6.0464263E-002	3.178164756164644E+000
-5.9595257E-002	3.181883386439758E+000
-5.8919210E-002	3.185321443058811E+000
-5.7319246E-002	3.189627538064599E+000
-5.6697600E-002	3.195095647816309E+000
-5.5402350E-002	3.199929796435214E+000
-5.4383561E-002	3.202656095000066E+000
-5.3224649E-002	3.206221370785327E+000
-5.2414957E-002	3.211720621696209E+000
-5.1725056E-002	3.215200632995774E+000
-5.0628848E-002	3.218474741887164E+000
-4.9448237E-002	3.223399035825238E+000
-4.8584361E-002	3.227781172703814E+000
-4.7127254E-002	3.232087001204491E+000
-4.6455637E-002	3.235142029415677E+000
-4.5580208E-002	3.238947549351941E+000
-4.4676974E-002	3.242715615917136E+000
-4.3625236E-002	3.247026294188927E+000
-4.2198904E-002	3.252037171412397E+000
-4.1190661E-002	3.256044090346055E+000
-4.0413830E-002	3.259221998649352E+000
-3.9274093E-002	3.264751619210958E+000
-3.8442548E-002	3.269345415411181E+000
-3.7489671E-002	3.273259300084696E+000
-3.6371339E-002	3.277335611206514E+000
-3.5508655E-002	3.282063323068293E+000
-3.4284219E-002	3.285921294380113E+000
-3.3420857E-002	3.290224656462669E+000
-3.2329664E-002	3.293739993740253E+000
-3.1559866E-002	3.298645969342326E+000
-3.0440891E-002	3.303601332284792E+000
-2.9599570E-002	3.308183334213965E+000
-2.8611077E-002	3.311739565597634E+000
-2.7628716E-002	3.316319731098629E+000
-2.6343996E-002	3.321349349701759E+000
-2.5388440E-002	3.323944718749424E+000
-2.4414446E-002	3.329697760061713E+000
-2.3325926E-002	3.333679081113246E+000
-2.2050189E-002	3.338569350264688E+000
-2.1564884E-002	3.343162990911475E+000
-2.0666696E-002	3.346366651632170E+000
-1.9432113E-002	3.350075365768546E+000
-1.8598581E-002	3.352854418482245E+000
-1.7496664E-002	3.356214884254669E+000
-1.6443027E-002	3.361127109439289E+000
-1.5340680E-002	3.365794860894582E+000
-1.4439695E-002	3.370533833901106E+000
-1.3268329E-002	3.374518029667726E+000
-1.2521517E-002	3.378219506687351E+000
-1.1415818E-002	3.380938867176027E+000
-1.0407985E-002	3.385406181919436E+000
-9.5151560E-003	3.389474283765871E+000
-8.2684848E-003	3.393754160514590E+000
-7.5409953E-003	3.399112487305574E+000
-6.1752112E-003	3.401557737478512E+000
-5.1489379E-003	3.404956712215025E+000
-4.8148232E-003	3.408879738401685E+000
-3.4141603E-003	3.412911871517144E+000
-2.3615838E-003	3.417909482562962E+000
-1.7041131E-003	3.421025679149366E+000
-3.3725178E-004	3.424742404509470E+000
5.3204614E-004	3.430514430558240E+000
1.3761006E-003	3.434769774380712E+000
2.5370738E-003	3.438539001124875E+000
3.6793773E-003	3.443122852838349E+000
4.5794351E-003	3.445899271302755E+000
5.4917950E-003	3.451366100046364E+000
6.2443153E-003	3.454630849399138E+000
7.2312416E-003	3.456525412472814E+000